Time (s),PPGG
0.0,-49174570.6382
0.03333333333333333,-44495280.1554
0.06666666666666667,-32243282.881
0.1,-25605533.7452
0.13333333333333333,-16410532.851
0.16666666666666666,-13017371.9204
0.2,-9034422.292
0.23333333333333334,-7254551.0564
0.26666666666666666,-4587745.6722
0.3,-1736349.9322
0.3333333333333333,3381155.0538
0.36666666666666664,9029920.0882
0.4,16869757.6386
0.43333333333333335,23792646.3484
0.4666666666666667,30751552.6886
0.5,35836041.5134
0.5333333333333333,39629898.5822
0.5666666666666667,41808965.2214
0.6,45244146.7208
0.6333333333333333,47429216.2984
0.6666666666666666,49174570.6382
0.7,47946969.7354
0.7333333333333333,47375189.8528
0.7666666666666667,46140085.277
0.8,45451248.0956
0.8333333333333334,43995535.5336
0.8666666666666667,42359734.8196
0.9,40086121.9006
0.9333333333333333,37452332.6776
0.9666666666666667,34608440.6106
1.0,32124724.8476
1.0333333333333334,29471426.0748
1.0666666666666667,27173801.4022
1.1,25423944.8586
1.1333333333333333,24549016.5868
1.1666666666666667,23903700.7088
1.2,23752126.5142
1.2333333333333334,23767133.8602
1.2666666666666666,23908202.9126
1.3,23951724.216
1.3333333333333333,23662082.4382
1.3666666666666667,23334922.2954
1.4,22832176.2044
1.4333333333333333,22449488.8814
1.4666666666666666,22479503.5734
1.5,22012775.1128
1.5333333333333334,21431990.8226
1.5666666666666667,20855708.7362
1.6,20366469.2566
1.6333333333333333,19469029.9658
1.6666666666666667,18358486.3618
1.7,17549590.4124
1.7333333333333334,16748198.136
1.7666666666666666,15985824.9592
1.8,15305992.1854
1.8333333333333333,14683187.3264
1.8666666666666667,13832270.8082
1.9,13272496.8024
1.9333333333333333,12393066.3268
1.9666666666666666,11482120.4246
2.0,10922346.4188
2.033333333333333,10722748.717
2.066666666666667,10391086.3704
2.1,9976883.6208
2.1333333333333333,8951881.889
2.1666666666666665,8078454.3518
2.2,7430137.0046
2.2333333333333334,7035443.8048
2.2666666666666666,6739799.0886
2.3,6136503.7794
2.3333333333333335,5411648.9676
2.3666666666666667,5018456.5024
2.4,4415161.1932
2.433333333333333,3712817.4004
2.466666666666667,3246088.9398
2.5,2962450.1004
2.533333333333333,2870905.2898
2.566666666666667,2959448.6312
2.6,3148541.1908
2.6333333333333333,3366147.7078
2.6666666666666665,3570247.6134
2.7,3861390.1258
2.7333333333333334,4202056.88
2.7666666666666666,4508206.7384
2.8,4911904.3458
2.8333333333333335,5615748.8732
2.8666666666666667,6324095.6044
2.9,6813335.084
2.933333333333333,7283065.0138
2.966666666666667,7619229.5642
3.0,7769303.0242
3.033333333333333,8151990.3472
3.066666666666667,8678748.1918
3.1,9291047.9086
3.1333333333333333,9874833.668
3.1666666666666665,10404592.9818
3.2,10811292.0584
3.2333333333333334,11507632.9128
3.2666666666666666,11710232.0838
3.3,12119932.6296
3.3333333333333335,12319530.3314
3.3666666666666667,12718725.735
3.4,13227474.7644
3.433333333333333,13536626.092
3.466666666666667,13868288.4386
3.5,14147425.0742
3.533333333333333,14372535.2642
3.566666666666667,14249475.027
3.6,14079892.0172
3.6333333333333333,13913310.4766
3.6666666666666665,13362540.8784
3.7,12315028.1276
3.7333333333333334,11157961.751
3.7666666666666666,10066927.6968
3.8,9403603.0036
3.8333333333333335,8527173.9972
3.8666666666666667,7293570.156
3.9,6318092.666
3.933333333333333,5446165.8634
3.966666666666667,4952424.18
4.0,4365636.9514
4.033333333333333,3573249.0826
4.066666666666666,2669806.8534
4.1,2162558.5586
4.133333333333334,1862411.6386
4.166666666666667,1278625.8792
4.2,687336.4468
4.233333333333333,330161.612
4.266666666666667,-10505.1422
4.3,-279136.6356
4.333333333333333,-664825.4278
4.366666666666666,-982981.163
4.4,-1550258.8418
4.433333333333334,-1754358.7474
4.466666666666667,-1955457.1838
4.5,-2093524.767
4.533333333333333,-2377163.6064
4.566666666666666,-2692317.8724
4.6,-3073504.4608
4.633333333333334,-3540232.9214
4.666666666666667,-4086500.3158
4.7,-4539722.165
4.733333333333333,-4893895.5306
4.766666666666667,-5015455.0332
4.8,-5249569.6308
4.833333333333333,-5545214.347
4.866666666666666,-5654767.9728
4.9,-5765822.3332
4.933333333333334,-5812345.1058
4.966666666666667,-5743311.3142
5.0,-5641261.3614
5.033333333333333,-5303596.0764
5.066666666666666,-4883390.3884
5.1,-4697299.298
5.133333333333334,-4629766.241
5.166666666666667,-4610256.6912
5.2,-4365636.9514
5.233333333333333,-3885401.8794
5.266666666666667,-3631777.732
5.3,-3100517.6836
5.333333333333333,-2423686.379
5.366666666666666,-1860910.904
5.4,-1560763.984
5.433333333333334,-1452711.0928
5.466666666666667,-1163069.315
5.5,-742863.627
5.533333333333333,-378185.1192
5.566666666666666,-9004.4076
5.6,441215.9724
5.633333333333334,807395.2148
5.666666666666667,1484226.5194
5.7,1776869.7664
5.733333333333333,1919439.5534
5.766666666666667,2162558.5586
5.8,2698320.8108
5.833333333333333,3414171.215
5.866666666666666,3978447.4246
5.9,4589246.4068
5.933333333333334,5165528.4932
5.966666666666667,5719299.5606
6.0,6252060.3436
6.033333333333333,6855355.6528
6.066666666666666,7223035.6298
6.1,7485664.1848
6.133333333333334,7914874.2804
6.166666666666667,8585702.6466
6.2,9369086.1078
6.233333333333333,9994892.436
6.266666666666667,10006898.3128
6.3,10053421.0854
6.333333333333333,9898845.421600001
6.366666666666666,9618208.0514
6.4,9267036.155
6.433333333333334,8848331.2016
6.466666666666667,8540680.6086
6.5,8327576.2954
6.533333333333333,7971902.1952
6.566666666666666,7518680.346
6.6,7072962.1698
6.633333333333334,6690274.8468
6.666666666666667,6319593.4006
6.7,5860368.613
6.733333333333333,5492688.636
6.766666666666667,5326107.0954
6.8,5266077.7114
6.833333333333333,5040967.5214
6.866666666666666,4629766.241
6.9,4127020.15
6.933333333333334,3699310.789
6.966666666666667,3636279.9358
7.0,3564244.675
7.033333333333333,3330130.0774
7.066666666666666,3019478.0152
7.1,2714828.8914
7.133333333333334,2725334.0336
7.166666666666667,2642793.6306
7.2,2407178.2984
7.233333333333333,2177565.9046
7.266666666666667,1776869.7664
7.3,1535251.4958
7.333333333333333,1322147.1826
7.366666666666666,1196085.4762
7.4,835909.1722
7.433333333333334,556772.5366
7.466666666666667,259627.0858
7.5,123060.2372
7.533333333333333,10505.1422
7.566666666666666,0.0
7.6,-61530.1186
7.633333333333334,-7503.673
7.666666666666667,-28513.9574
7.7,-205600.6402
7.733333333333333,-109553.6258
7.766666666666667,-12005.8768
7.8,132064.6448
7.833333333333333,106552.1566
7.866666666666666,57027.9148
7.9,165080.806
7.933333333333334,484737.2758
7.966666666666667,649818.0818
8.0,667826.897
8.033333333333333,541765.1906
8.066666666666666,318155.7352
8.1,142569.787
8.133333333333333,207101.3748
8.166666666666666,205600.6402
8.2,163580.0714
8.233333333333333,609298.2476
8.266666666666667,816399.6224
8.3,1173574.4572
8.333333333333334,1742352.8706
8.366666666666667,2237595.2886
8.4,2713328.1568
8.433333333333334,3168050.7406
8.466666666666667,3819369.557
8.5,4512708.9422
8.533333333333333,5061977.8058
8.566666666666666,5506195.2474
8.6,5966920.7696
8.633333333333333,6343605.1542
8.666666666666666,6583722.6902
8.7,6922888.7098
8.733333333333333,7581711.1992
8.766666666666667,8285555.7266
8.8,8986398.7848
8.833333333333334,9610704.3784
8.866666666666667,10074431.3698
8.9,10587682.603
8.933333333333334,11354557.9836
8.966666666666667,12106426.0182
9.0,12852291.1144
9.033333333333333,13128426.2808
9.066666666666666,13700206.1634
9.1,14317008.084
9.133333333333333,14668179.9804
9.166666666666666,14623157.9424
9.2,14747718.9142
9.233333333333333,15158920.1946
9.266666666666667,15598635.4324
9.3,15753211.0962
9.333333333333334,15949807.3288
9.366666666666667,15988826.4284
9.4,16087874.912
9.433333333333334,16230444.699
9.466666666666667,16167413.8458
9.5,15808738.2764
9.533333333333333,15667669.224
9.566666666666666,15667669.224
9.6,15892779.414
9.633333333333333,15861263.9874
9.666666666666666,15628650.1244
9.7,15271475.2896
9.733333333333333,14912799.7202
9.766666666666667,14360529.3874
9.8,13464590.8312
9.833333333333334,12598666.967
9.866666666666667,11951850.3544
9.9,11299030.8034
9.933333333333334,10766270.0204
9.966666666666667,10176481.3226
