Time (s),PPGG
0.0,-264723125.436
0.03333333333333333,-264993251.0742
0.06666666666666667,-262545749.0796
0.1,-256300116.8994
0.13333333333333333,-254196411.17159998
0.16666666666666666,-255088644.3402
0.2,-263257898.4894
0.23333333333333334,-264567598.5534
0.26666666666666666,-266294765.5128
0.3,-267219741.183
0.3333333333333333,-265885484.2428
0.36666666666666664,-266638561.7796
0.4,-263462539.1244
0.43333333333333335,-268218387.4818
0.4666666666666667,-266311136.7636
0.5,-264985065.4488
0.5333333333333333,-262005497.8032
0.5666666666666667,-243424128.14519998
0.6,-221527580.2002
0.6333333333333333,-198370445.9436
0.6666666666666666,-177554400.5514
0.7,-163704322.3746
0.7333333333333333,-148192562.2416
0.7666666666666667,-120132238.3704
0.8,-101084288.0646
0.8333333333333334,-89468885.622
0.8666666666666667,-77624285.6682
0.9,-65288548.1904
0.9333333333333333,-52551715.067999996
0.9666666666666667,-46445238.5196
1.0,-35771182.997999996
1.0333333333333334,-32251364.076
1.0666666666666667,-26455941.292799998
1.1,-10101061.7436
1.1333333333333333,-5173315.2528
1.1666666666666667,1350628.1909999999
1.2,7219721.6027999995
1.2333333333333334,11607216.8172
1.2666666666666666,8251110.4032
1.3,6474829.6914
1.3333333333333333,-14971508.8566
1.3666666666666667,-24892486.8414
1.4,-45282879.712799996
1.4333333333333333,-55752294.5994
1.4666666666666666,-68341786.4646
1.5,-82363762.7748
1.5333333333333334,-100773234.2994
1.5666666666666667,-109703751.6108
1.6,-126492469.3062
1.6333333333333333,-142822791.9792
1.6666666666666667,-154045284.4026
1.7,-165505159.9626
1.7333333333333334,-170809445.2218
1.7666666666666666,-183333452.0838
1.8,-178692202.482
1.8333333333333333,-180992363.2194
1.8666666666666667,-179478022.5204
1.9,-182891428.3122
1.9333333333333333,-179281567.5108
1.9666666666666666,-174722174.163
2.0,-164203645.524
2.033333333333333,-157835228.9628
2.066666666666667,-148577286.6354
2.1,-141373936.2834
2.1333333333333333,-128718959.41499999
2.1666666666666665,-114746096.8572
2.2,-102238461.24599999
2.2333333333333334,-90819513.813
2.2666666666666666,-78180908.1954
2.3,-64920195.0474
2.3333333333333335,-59100215.388
2.3666666666666667,-56030605.863
2.4,-51937793.163
2.433333333333333,-43514784.6264
2.466666666666667,-36663416.1666
2.5,-24458648.6952
2.533333333333333,-20480434.7508
2.566666666666667,-16747789.5684
2.6,-17042472.0828
2.6333333333333333,-13874635.053
2.6666666666666665,-8529421.6668
2.7,-11206121.1726
2.7333333333333334,-19334447.1948
2.7666666666666666,-26693324.4294
2.8,-28379563.2618
2.8333333333333335,-33102669.1176
2.8666666666666667,-37915816.8528
2.9,-44415203.4204
2.933333333333333,-52993738.8396
2.966666666666667,-63798764.3676
3.0,-78017195.6874
3.033333333333333,-89902723.7682
3.066666666666667,-101248000.57259999
3.1,-114647869.3524
3.1333333333333333,-127605714.3606
3.1666666666666665,-142953761.9856
3.2,-148102520.3622
3.2333333333333334,-155600553.2286
3.2666666666666666,-170514762.7074
3.3,-181622656.3752
3.3333333333333335,-186010151.5896
3.3666666666666667,-192771478.17
3.4,-200940732.3192
3.433333333333333,-209519267.7384
3.466666666666667,-213325583.5494
3.5,-216878144.973
3.533333333333333,-222951879.0198
3.566666666666667,-225669506.6526
3.6,-220913658.2952
3.6333333333333333,-225333896.0112
3.6666666666666665,-224572632.849
3.7,-227372116.7358
3.7333333333333334,-230253456.8766
3.7666666666666666,-233773275.7986
3.8,-235623227.139
3.8333333333333335,-241950715.5732
3.8666666666666667,-249285035.9316
3.9,-244799313.2124
3.933333333333333,-221331125.1906
3.966666666666667,-200277696.6618
4.0,-192116628.138
4.033333333333333,-202176761.7546
4.066666666666666,-224106052.2012
4.1,-230327127.5052
4.133333333333334,-222739052.7594
4.166666666666667,-201939378.618
4.2,-193303543.821
4.233333333333333,-185273445.30359998
4.266666666666667,-189431743.0068
4.3,-181483500.7434
4.333333333333333,-164089046.76839998
4.366666666666666,-153095751.8562
4.4,-143174773.8714
4.433333333333334,-132222407.0862
4.466666666666667,-139302973.05719998
4.5,-142028786.3154
4.533333333333333,-137436650.466
4.566666666666666,-114238588.0824
4.6,-71329539.7356
4.633333333333334,-20627776.008
4.666666666666667,36900799.3032
4.7,84745779.7662
4.733333333333333,104702334.4914
4.766666666666667,139687697.451
4.8,167985404.4588
4.833333333333333,188916048.6066
4.866666666666666,213055457.9112
4.9,239355872.3214
4.933333333333334,260712168.99
4.966666666666667,268218387.4818
5.0,254409237.432
5.033333333333333,226307985.4338
5.066666666666666,191085239.3376
5.1,159284084.6586
5.133333333333334,122898979.7556
5.166666666666667,83239624.6926
5.2,33315495.378
5.233333333333333,-7776344.13
5.266666666666667,-39741211.317
5.3,-46633507.903799996
5.333333333333333,-34322327.3022
5.366666666666666,-31048077.1422
5.4,-31784783.4282
5.433333333333334,-55670438.3454
5.466666666666667,-82093637.1366
5.5,-77419645.0332
5.533333333333333,-55203857.6976
5.566666666666666,-44521616.5506
5.6,-52281589.4298
5.633333333333334,-68382714.5916
5.666666666666667,-79998117.0342
5.7,-79989931.4088
5.733333333333333,-78475590.7098
5.766666666666667,-69209462.757
5.8,-61555903.008
5.833333333333333,-66409978.8702
5.866666666666666,-73204047.9522
5.9,-88904077.4694
5.933333333333334,-91408878.8418
5.966666666666667,-94789542.132
6.0,-100912389.9312
6.033333333333333,-102287574.9984
6.066666666666666,-113420025.5424
6.1,-140006936.8416
6.133333333333334,-165153178.0704
6.166666666666667,-164645669.2956
6.2,-146498137.7838
6.233333333333333,-137412093.5898
6.266666666666667,-140514445.6164
6.3,-151262171.7666
6.333333333333333,-153652374.3834
6.366666666666666,-148069777.8606
6.4,-144484473.9354
6.433333333333334,-145343964.6024
6.466666666666667,-150910189.8744
6.5,-149215765.4166
6.533333333333333,-147365814.0762
6.566666666666666,-146318054.025
6.6,-140195206.2258
6.633333333333334,-136208806.656
6.666666666666667,-130552539.5046
6.7,-125240068.62
6.733333333333333,-123570201.0384
6.766666666666667,-124298721.699
6.8,-125731206.144
6.833333333333333,-131076419.5302
6.866666666666666,-127212804.3414
6.9,-124577032.9626
6.933333333333334,-120803459.6532
6.966666666666667,-120762531.5262
7.0,-120664304.0214
7.033333333333333,-115376390.013
7.066666666666666,-101051545.563
7.1,-105782837.0442
7.133333333333334,-111029822.92559999
7.166666666666667,-124405134.8292
7.2,-123226404.7716
7.233333333333333,-112429564.869
7.266666666666667,-107313548.994
7.3,-107821057.7688
7.333333333333333,-110776068.5382
7.366666666666666,-119420088.9606
7.4,-131755826.4384
7.433333333333334,-134530753.449
7.466666666666667,-133982316.5472
7.5,-131968652.6988
7.533333333333333,-119092663.9446
7.566666666666666,-118224987.6522
7.6,-119068107.0684
7.633333333333334,-115220863.1304
7.666666666666667,-108623249.058
7.7,-107510004.0036
7.733333333333333,-116211323.8038
7.766666666666667,-127139133.7128
7.8,-136732686.6816
7.833333333333333,-135218345.9826
7.866666666666666,-127753055.6178
7.9,-123210033.5208
7.933333333333334,-124167751.6926
7.966666666666667,-128096851.8846
8.0,-131027305.7778
8.033333333333333,-122759824.1238
8.066666666666666,-129193725.6882
8.1,-130560725.13
8.133333333333333,-139925080.5876
8.166666666666666,-147193915.9428
8.2,-160634712.8496
8.233333333333333,-163114957.3458
8.266666666666667,-161723401.0278
8.3,-150902004.249
8.333333333333334,-141619505.0454
8.366666666666667,-142700007.5982
8.4,-143453085.135
8.433333333333334,-146678221.5426
8.466666666666667,-141766846.3026
8.5,-136822728.561
8.533333333333333,-134039615.925
8.566666666666666,-139049218.66979998
8.6,-140309804.9814
8.633333333333333,-135038262.2238
8.666666666666666,-132255149.5878
8.7,-129488408.2026
8.733333333333333,-121622022.19319999
8.766666666666667,-108991602.201
8.8,-102459473.1318
8.833333333333334,-99668174.8704
8.866666666666667,-96631307.847
8.9,-95305236.5322
8.933333333333334,-103499047.55759999
8.966666666666667,-111185349.8082
9.0,-111717415.4592
9.033333333333333,-109114386.582
9.066666666666666,-106151190.1872
9.1,-102598628.76359999
9.133333333333333,-101788251.84899999
9.166666666666666,-86653030.4844
9.2,-81880810.8762
9.233333333333333,-85253288.541
9.266666666666667,-96312068.45639999
9.3,-104677777.6152
9.333333333333334,-110211260.3856
9.366666666666667,-101698209.96959999
9.4,-99529019.2386
9.433333333333334,-93316129.56
9.466666666666667,-84909492.27419999
9.5,-96303882.831
9.533333333333333,-96803205.9804
9.566666666666666,-100609521.7914
9.6,-92685836.4042
9.633333333333333,-82028152.1334
9.666666666666666,-82404690.90179999
9.7,-86988641.1258
9.733333333333333,-91777231.9848
9.766666666666667,-85187803.5378
9.8,-70322707.8114
9.833333333333334,-62603663.0592
9.866666666666667,-64412686.2726
9.9,-55490354.5866
9.933333333333334,-52780912.5792
9.966666666666667,-48499830.495
