Time (s),PPGG
0.0,-45567618.5986
0.03333333333333333,-43437133.913
0.06666666666666667,-42524863.7082
0.1,-42314874.6824
0.13333333333333333,-42053431.392
0.16666666666666666,-41650141.21
0.2,-41191224.796
0.23333333333333334,-39856195.228
0.26666666666666666,-39101069.1286
0.3,-38795124.8526
0.3333333333333333,-38774265.0156
0.36666666666666664,-38505868.4462
0.4,-38176283.0216
0.43333333333333335,-38071983.8366
0.4666666666666667,-37105478.0556
0.5,-35742635.3716
0.5333333333333333,-34395089.9014
0.5666666666666667,-33267268.0476
0.6,-32378638.9914
0.6333333333333333,-31617950.2688
0.6666666666666666,-31506697.8048
0.7,-31723640.1096
0.7333333333333333,-32151962.096
0.7666666666666667,-32635910.3144
0.8,-33104561.319
0.8333333333333334,-32591409.3288
0.8666666666666667,-31216050.7426
0.9,-29499981.4854
0.9333333333333333,-27455717.4594
0.9666666666666667,-25277950.4766
1.0,-23020916.1132
1.0333333333333334,-21787404.4186
1.0666666666666667,-21448084.4034
1.1,-20730506.0106
1.1333333333333333,-20729115.3548
1.1666666666666667,-20253511.0712
1.2,-18273217.212
1.2333333333333334,-16170545.6424
1.2666666666666666,-13834243.8984
1.3,-10457731.616
1.3333333333333333,-4614195.9444
1.3666666666666667,2124922.0624
1.4,4718495.1294
1.4333333333333333,3461342.2862
1.4666666666666666,2115187.4718
1.5,883066.433
1.5333333333333334,-1654880.402
1.5666666666666667,-4559960.3682
1.6,-7923956.7484
1.6333333333333333,-13297450.7596
1.6666666666666667,-17997867.3636
1.7,-22981977.7508
1.7333333333333334,-27647627.9598
1.7666666666666666,-30487347.1034
1.8,-31975348.8094
1.8333333333333333,-31918331.9216
1.8666666666666667,-30968514.0102
1.9,-29931084.7834
1.9333333333333333,-29188474.5862
1.9666666666666666,-29373431.8076
2.0,-30510988.252
2.033333333333333,-32622003.7564
2.066666666666667,-34424293.6732
2.1,-34493826.4632
2.1333333333333333,-33349316.7398
2.1666666666666665,-32103289.143
2.2,-30427548.904
2.2333333333333334,-29326149.5104
2.2666666666666666,-28251172.577
2.3,-27338902.3722
2.3333333333333335,-26504508.8922
2.3666666666666667,-25226496.212
2.4,-23596647.6144
2.433333333333333,-22164272.1404
2.466666666666667,-21791576.386
2.5,-22541139.8622
2.533333333333333,-23447847.4438
2.566666666666667,-24641030.1202
2.6,-24896910.7874
2.6333333333333333,-22884631.8448
2.6666666666666665,-21345175.8742
2.7,-17748939.9754
2.7333333333333334,-11134980.9906
2.7666666666666666,-1126431.198
2.8,10955586.3924
2.8333333333333335,23596647.6144
2.8666666666666667,31640200.7616
2.9,34044644.6398
2.933333333333333,35044526.16
2.966666666666667,34801161.395
3.0,33737309.708
3.033333333333333,32015677.8276
3.066666666666667,30835011.0534
3.1,31712514.8632
3.1333333333333333,34249071.0424
3.1666666666666665,36286381.7894
3.2,38589307.7942
3.2333333333333334,41583389.7316
3.2666666666666666,44460656.5818
3.3,45567618.5986
3.3333333333333335,43242442.101
3.3666666666666667,36985881.6568
3.4,29961679.211
3.433333333333333,26252800.1924
3.466666666666667,25696537.8724
3.5,26315379.7034
3.533333333333333,27801990.7536
3.566666666666667,29405416.891
3.6,31135392.7062
3.6333333333333333,33032247.2174
3.6666666666666665,34208742.0242
3.7,34046035.2956
3.7333333333333334,33573212.3236
3.7666666666666666,33895844.4692
3.8,33726184.4616
3.8333333333333335,25999700.8368
3.8666666666666667,16285970.0738
3.9,10144834.061
3.933333333333333,4484864.955
3.966666666666667,-41719.674
4.0,-2633902.0852
4.033333333333333,-4896499.0718
4.066666666666666,-5715595.338
4.1,-5843535.6716
4.133333333333334,-6862886.373
4.166666666666667,-8613722.0252
4.2,-10571765.3916
4.233333333333333,-12657749.0916
4.266666666666667,-14166610.6346
4.3,-14693669.1828
4.333333333333333,-15525281.3512
4.366666666666666,-16669791.0746
4.4,-18081306.7116
4.433333333333334,-19072844.297
4.466666666666667,-20215963.3646
4.5,-21965408.361
4.533333333333333,-24666061.9246
4.566666666666666,-27991119.9424
4.6,-29458261.8114
4.633333333333334,-30213387.9108
4.666666666666667,-31209097.4636
4.7,-31207706.8078
4.733333333333333,-30228685.1246
4.766666666666667,-30046509.2148
4.8,-29691891.9858
4.833333333333333,-28203890.2798
4.866666666666666,-27636502.7134
4.9,-26825750.382
4.933333333333334,-26606026.7656
4.966666666666667,-29401244.9236
5.0,-33829092.9908
5.033333333333333,-35639726.8424
5.066666666666666,-36688281.3156
5.1,-38001060.3908
5.133333333333334,-38633808.7798
5.166666666666667,-37369702.6576
5.2,-34500779.7422
5.233333333333333,-32624785.068
5.266666666666667,-30975467.2892
5.3,-29765596.7432
5.333333333333333,-29374822.4634
5.366666666666666,-28523741.1138
5.4,-27437638.934
5.433333333333334,-27133085.3138
5.466666666666667,-26361271.3448
5.5,-25291857.0346
5.533333333333333,-24290584.8586
5.566666666666666,-22945820.7
5.6,-21823561.4694
5.633333333333334,-20311918.6148
5.666666666666667,-18385860.3318
5.7,-16971563.3832
5.733333333333333,-15745004.9676
5.766666666666667,-15667128.2428
5.8,-16256766.302
5.833333333333333,-16078762.3596
5.866666666666666,-15390387.7386
5.9,-14753467.3822
5.933333333333334,-14524009.1752
5.966666666666667,-14133234.8954
6.0,-12991506.4836
6.033333333333333,-11723228.394
6.066666666666666,-9950142.249
6.1,-7042280.9712
6.133333333333334,-5643281.2364
6.166666666666667,-5933928.2986
6.2,-5653015.827
6.233333333333333,-5276148.1052
6.266666666666667,-4174748.7116
6.3,-2129094.0298
6.333333333333333,-356007.8848
6.366666666666666,1810633.8516
6.4,3147054.0754
6.433333333333334,3831256.729
6.466666666666667,3493327.3696
6.5,2250081.0844
6.533333333333333,1062461.0312
6.566666666666666,634139.0448
6.6,368523.787
6.633333333333334,-293428.3738
6.666666666666667,-190519.8446
6.7,-146018.859
6.733333333333333,-367133.1312
6.766666666666667,-475604.2836
6.8,-329585.4246
6.833333333333333,-852472.0054
6.866666666666666,-1795336.6378
6.9,-4263750.6828
6.933333333333334,-6789181.6156
6.966666666666667,-8616503.3368
7.0,-9062903.8486
7.033333333333333,-11361657.886
7.066666666666666,-13522736.9992
7.1,-10692752.4462
7.133333333333334,-6694617.0212
7.166666666666667,-8553923.8258
7.2,-11282390.5054
7.233333333333333,-13344733.0568
7.266666666666667,-17783706.3704
7.3,-24855191.1134
7.333333333333333,-28007807.812
7.366666666666666,-27452936.1478
7.4,-24912208.0012
7.433333333333334,-22892975.7796
7.466666666666667,-23314344.487
7.5,-26870251.3676
7.533333333333333,-31458024.8518
7.566666666666666,-34930492.3844
7.6,-38266675.6486
7.633333333333334,-39401450.7814
7.666666666666667,-39746333.4198
7.7,-39081599.9474
7.733333333333333,-37138853.7948
7.766666666666667,-34849834.348
7.8,-32040709.632
7.833333333333333,-29358134.5938
7.866666666666666,-27749145.8332
7.9,-26683903.4904
7.933333333333334,-26724232.5086
7.966666666666667,-26818797.103
8.0,-24706390.9428
8.033333333333333,-20424561.7346
8.066666666666666,-14788233.7772
8.1,-7580464.7658
8.133333333333333,-50063.6088
8.166666666666666,7805751.0054
8.2,14760420.6612
8.233333333333333,16906202.5606
8.266666666666667,16939578.2998
8.3,17045268.1406
8.333333333333334,15628189.8804
8.366666666666667,13245996.495
8.4,12481135.805
8.433333333333334,14401631.4648
8.466666666666667,16138560.559
8.5,15423763.4778
8.533333333333333,13227917.9696
8.566666666666666,10770629.171
8.6,9367457.4688
8.633333333333333,9510695.0162
8.666666666666666,11179481.9762
8.7,13052695.3388
8.733333333333333,14494805.4034
8.766666666666667,15293041.8326
8.8,18323280.8208
8.833333333333334,20240995.169
8.866666666666667,19677779.57
8.9,19013046.0976
8.933333333333334,17805956.8632
8.966666666666667,17287242.2498
9.0,16308220.5666
9.033333333333333,14505930.6498
9.066666666666666,12941442.8748
9.1,12155722.3478
9.133333333333333,12456104.0006
9.166666666666666,12229427.1052
9.2,11656476.9156
9.233333333333333,11172528.6972
9.266666666666667,9831936.506
9.3,9003105.6492
9.333333333333334,8763912.8516
9.366666666666667,8966948.5984
9.4,9147733.8524
9.433333333333334,9459240.7516
9.466666666666667,9556586.6576
9.5,9583009.1178
9.533333333333333,10463294.2392
9.566666666666666,11265702.6358
9.6,12234989.7284
9.633333333333333,12460275.968
9.666666666666666,11930436.1082
9.7,11287953.1286
9.733333333333333,10552296.2104
9.766666666666667,9944579.6258
9.8,9562149.2808
9.833333333333334,9716512.0746
9.866666666666667,8854305.4786
9.9,6093853.7156
9.933333333333334,1870432.051
9.966666666666667,-1827321.7212
