Time (s),PPGG
0.0,-14986743.637500001
0.03333333333333333,-5351830.5132
0.06666666666666667,1430636.3865
0.1,7400325.2877
0.13333333333333333,12370407.5826
0.16666666666666666,13991550.3054
0.2,14721211.639800001
0.23333333333333334,17985563.4564
0.26666666666666666,22347349.4574
0.3,24056757.6642
0.3333333333333333,24101625.9519
0.36666666666666664,22599641.6325
0.4,21551489.01
0.43333333333333335,21111632.6814
0.4666666666666667,20968936.8156
0.5,20648238.8904
0.5333333333333333,20691636.0867
0.5666666666666667,20395211.1696
0.6,20236333.2984
0.6333333333333333,20301796.8657
0.6666666666666666,20287821.4974
0.7,19907544.370500002
0.7333333333333333,19300719.168
0.7666666666666667,18704191.6053
0.8,18440866.2447
0.8333333333333334,18069415.6662
0.8666666666666667,18069415.6662
0.9,18372460.4946
0.9333333333333333,18924119.7696
0.9666666666666667,19294834.8024
1.0,19696442.7546
1.0333333333333334,19676583.0207
1.0666666666666667,19740575.496600002
1.1,19943586.1098
1.1333333333333333,20418748.632
1.1666666666666667,20935101.7134
1.2,21498529.7196
1.2333333333333334,21523538.2734
1.2666666666666666,21324205.3887
1.3,21094715.1303
1.3333333333333333,21096186.2217
1.3666666666666667,21082946.399100002
1.4,21463223.526
1.4333333333333333,20969672.3613
1.4666666666666666,20767397.2938
1.5,20287085.951700002
1.5333333333333334,19939908.3813
1.5666666666666667,19355149.5498
1.6,18721844.7021
1.6333333333333333,17734742.372700002
1.6666666666666667,16703507.3013
1.7,15717140.5176
1.7333333333333334,14459357.3706
1.7666666666666666,13211136.3177
1.8,12369672.0369
1.8333333333333333,11731218.3693
1.8666666666666667,11065549.5108
1.9,10591122.5343
1.9333333333333333,10238060.5983
1.9666666666666666,10393996.286700001
2.0,11471570.7372
2.033333333333333,12181372.3377
2.066666666666667,12288762.0099
2.1,12204174.2544
2.1333333333333333,12482210.529000001
2.1666666666666665,12649914.9486
2.2,12382176.3138
2.2333333333333334,11395809.530100001
2.2666666666666666,9890147.4822
2.3,8622802.2411
2.3333333333333335,7657030.737
2.3666666666666667,6658159.6764
2.4,5794629.0246
2.433333333333333,4803113.421
2.466666666666667,3928549.5837
2.5,1786640.5053
2.533333333333333,-727454.6973
2.566666666666667,-2074974.4197
2.6,-1638795.8196
2.6333333333333333,-1797673.6908
2.6666666666666665,-1874170.4436
2.7,-3390865.677
2.7333333333333334,-5858621.5005
2.7666666666666666,-10016661.342600001
2.8,-12706551.9675
2.8333333333333335,-14688847.629
2.8666666666666667,-13653934.8291
2.9,-13929764.4666
2.933333333333333,-14090113.429200001
2.966666666666667,-14386538.3463
3.0,-14603524.3278
3.033333333333333,-14966883.9036
3.066666666666667,-15882638.3001
3.1,-16724102.5809
3.1333333333333333,-18074564.4861
3.1666666666666665,-19268355.1572
3.2,-20940986.079
3.2333333333333334,-21902344.3089
3.2666666666666666,-22370886.919800002
3.3,-22303952.2611
3.3333333333333335,-21991345.3386
3.3666666666666667,-21452190.3405
3.4,-20874786.966000002
3.433333333333333,-20601163.9656
3.466666666666667,-20546733.5838
3.5,-20328276.510900002
3.533333333333333,-20418748.632
3.566666666666667,-20430517.3632
3.6,-20545998.0381
3.6333333333333333,-21047640.2055
3.6666666666666665,-21865567.0239
3.7,-22542269.067900002
3.7333333333333334,-23230004.2974
3.7666666666666666,-23872871.2392
3.8,-24101625.9519
3.8333333333333335,-24017038.1964
3.8666666666666667,-23530842.4887
3.9,-22022238.258
3.933333333333333,-18710075.9709
3.966666666666667,-13233938.2344
4.0,-7273811.427300001
4.033333333333333,-2535426.0279
4.066666666666666,1083458.8161
4.1,3388659.0399
4.133333333333334,4427249.5683
4.166666666666667,5228994.3813000005
4.2,6886178.8434
4.233333333333333,9149452.9623
4.266666666666667,11283271.038
4.3,13251591.3312
4.333333333333333,14430671.0883
4.366666666666666,14757988.924800001
4.4,14775642.0216
4.433333333333334,14345347.7871
4.466666666666667,13486965.9552
4.5,12118850.9532
4.533333333333333,10407971.655
4.566666666666666,8775795.7467
4.6,7019312.6151
4.633333333333334,5481286.5564
4.666666666666667,3805713.4518
4.7,2055850.2315
4.733333333333333,713479.329
4.766666666666667,-131662.6803
4.8,-625213.845
4.833333333333333,-1186435.2141
4.866666666666666,-2240472.2022
4.9,-3219483.5289000003
4.933333333333334,-3804242.3604
4.966666666666667,-4387530.1005
5.0,-4953164.7438
5.033333333333333,-5283424.7631
5.066666666666666,-5414351.8977
5.1,-5900547.6054
5.133333333333334,-6397040.9529
5.166666666666667,-6689052.5958
5.2,-6960468.959100001
5.233333333333333,-7122289.0131
5.266666666666667,-6846459.3756
5.3,-6066780.9336
5.333333333333333,-5240027.5668
5.366666666666666,-4798700.1468
5.4,-4373554.7322
5.433333333333334,-3941053.8606000002
5.466666666666667,-3640951.215
5.5,-2992935.4533
5.533333333333333,-2310349.0437
5.566666666666666,-1927129.734
5.6,-1991857.7556
5.633333333333334,-1884468.0834000001
5.666666666666667,-1847690.7984
5.7,-1730003.4864
5.733333333333333,-1438727.3892
5.766666666666667,-1037119.437
5.8,-620065.0251
5.833333333333333,-209630.5245
5.866666666666666,319226.8338
5.9,614916.2052
5.933333333333334,664197.7671
5.966666666666667,980482.4181
6.0,1223948.0448
6.033333333333333,1850632.9812
6.066666666666666,2422887.5358
6.1,2941447.2543
6.133333333333334,3549008.0025
6.166666666666667,3963855.7773
6.2,3777027.1695
6.233333333333333,3949880.409
6.266666666666667,4099196.1861
6.3,3959442.5031
6.333333333333333,3735836.6103
6.366666666666666,3875590.2933
6.4,4241892.0519
6.433333333333334,4826650.8834
6.466666666666667,5653404.2502
6.5,6872939.0208
6.533333333333333,8046869.958000001
6.566666666666666,9242867.2662
6.6,10026958.9824
6.633333333333334,10274837.8833
6.666666666666667,10501385.9589
6.7,10649230.6446
6.733333333333333,10882398.6315
6.766666666666667,10960366.4757
6.8,11102326.7958
6.833333333333333,11424495.8124
6.866666666666666,11883476.3292
6.9,12575624.8329
6.933333333333334,13234673.780100001
6.966666666666667,13493585.8665
7.0,13183921.1268
7.033333333333333,12957373.0512
7.066666666666666,12806586.1827
7.1,12346134.5745
7.133333333333334,11473777.3743
7.166666666666667,10215258.6816
7.2,9100906.9461
7.233333333333333,8006414.9445
7.266666666666667,6675077.2275
7.3,5883630.0543
7.333333333333333,5173828.4538
7.366666666666666,4600838.3535
7.4,3967533.5058
7.433333333333334,3339377.478
7.466666666666667,2733287.8212
7.5,2308877.9523
7.533333333333333,1649829.0051
7.566666666666666,1017995.2488000001
7.6,218457.0729
7.633333333333334,-759083.1624
7.666666666666667,-1873434.8979
7.7,-3090027.4857
7.733333333333333,-4110229.3716
7.766666666666667,-4970082.2949
7.8,-5890985.5113
7.833333333333333,-7142884.2927
7.866666666666666,-8399931.894
7.9,-9107526.8574
7.933333333333334,-9709938.7857
7.966666666666667,-10358690.0931
8.0,-11089086.9732
8.033333333333333,-11393602.893000001
8.066666666666666,-11632655.2455
8.1,-11858467.7754
8.133333333333333,-11940848.8938
8.166666666666666,-12029114.3778
8.2,-12259340.1819
8.233333333333333,-12574889.2872
8.266666666666667,-13007390.1588
8.3,-13087564.6401
8.333333333333334,-12868372.0215
8.366666666666667,-12562385.0103
8.4,-12555029.5533
8.433333333333334,-12528549.9081
8.466666666666667,-12298324.104
8.5,-12171810.2436
8.533333333333333,-12140917.3242
8.566666666666666,-12067362.7542
8.6,-11956295.3535
8.633333333333333,-12051916.2945
8.666666666666666,-11909220.4287
8.7,-11752549.194600001
8.733333333333333,-11703267.6327
8.766666666666667,-11971741.8132
8.8,-12126941.9559
8.833333333333334,-11666490.3477
8.866666666666667,-11095706.8845
8.9,-10541840.9724
8.933333333333334,-9697434.5088
8.966666666666667,-8492610.6522
9.0,-7508450.5056
9.033333333333333,-6801591.0879
9.066666666666666,-6303626.649
9.1,-5858621.5005
9.133333333333333,-5413616.352
9.166666666666666,-4867105.8969
9.2,-4453729.2135
9.233333333333333,-4125675.8313
9.266666666666667,-3793944.7206
9.3,-3580636.4676
9.333333333333334,-3600496.2015
9.366666666666667,-3693174.9597
9.4,-3733629.9732
9.433333333333334,-3740249.8845
9.466666666666667,-3473246.7954
9.5,-3223161.2574
9.533333333333333,-3268765.0908
9.566666666666666,-3338641.9323
9.6,-3439411.6932
9.633333333333333,-3552685.731
9.666666666666666,-3783647.0808
9.7,-3976360.0542
9.733333333333333,-4049914.6242
9.766666666666667,-4001368.608
9.8,-4047707.9871
9.833333333333334,-3968269.0515
9.866666666666667,-3866028.1992
9.9,-3927078.4923
9.933333333333334,-4045501.35
9.966666666666667,-4230858.8664
