Time (s),PPGG
0.0,34792298.93
0.03333333333333333,36179418.529999994
0.06666666666666667,37526722.66
0.1,38227988.68
0.13333333333333333,38750727.269999996
0.16666666666666666,38989620.089999996
0.2,39279887.70999999
0.23333333333333334,39643364.419999994
0.26666666666666666,39929778.93
0.3,39896385.309999995
0.3333333333333333,40312521.19
0.36666666666666664,41054887.05
0.4,41360567.11
0.43333333333333335,41471022.93
0.4666666666666667,41932111.76
0.5,42084951.79
0.5333333333333333,41840921.489999995
0.5666666666666667,41834499.63999999
0.6,41816518.45999999
0.6333333333333333,41551938.239999995
0.6666666666666666,41200020.86
0.7,40959843.669999994
0.7333333333333333,40614348.13999999
0.7666666666666667,40322796.15
0.8,39464836.989999995
0.8333333333333334,38370553.75
0.8666666666666667,37298104.8
0.9,35854472.919999994
0.9333333333333333,34119289.05
0.9666666666666667,31503027.359999996
1.0,28441089.279999997
1.0333333333333334,25145395.86
1.0666666666666667,21568425.409999996
1.1,18104479.52
1.1333333333333333,14618699.339999998
1.1666666666666667,11112369.239999998
1.2,7715210.589999999
1.2333333333333334,4187046.1999999997
1.2666666666666666,714109.72
1.3,-2824329.63
1.3333333333333333,-6416712.52
1.3666666666666667,-10066892.059999999
1.4,-13480747.52
1.4333333333333333,-16754606.649999999
1.4666666666666666,-20025897.04
1.5,-22887473.4
1.5333333333333334,-25131267.79
1.5666666666666667,-27274881.319999997
1.6,-27489371.11
1.6333333333333333,-28855940.79
1.6666666666666667,-30126182.72
1.7,-31414405.83
1.7333333333333334,-32236402.63
1.7666666666666666,-32885009.479999997
1.8,-33617100.379999995
1.8333333333333333,-34141123.339999996
1.8666666666666667,-34711383.62
1.9,-35312468.779999994
1.9333333333333333,-35735026.51
1.9666666666666666,-36451704.97
2.0,-36793347.39
2.033333333333333,-36942334.309999995
2.066666666666667,-36935912.45999999
2.1,-36851144.04
2.1333333333333333,-36784356.8
2.1666666666666665,-36988571.629999995
2.2,-37355901.449999996
2.2333333333333334,-37944142.91
2.2666666666666666,-39026866.82
2.3,-40033812.9
2.3333333333333335,-41216717.669999994
2.3666666666666667,-41641844.13999999
2.4,-41735603.15
2.433333333333333,-42084951.79
2.466666666666667,-41973211.599999994
2.5,-41364420.22
2.533333333333333,-40646457.38999999
2.566666666666667,-40335639.849999994
2.6,-39052554.22
2.6333333333333333,-37138842.919999994
2.6666666666666665,-35398521.57
2.7,-35135225.72
2.7333333333333334,-35127519.5
2.7666666666666666,-35181463.04
2.8,-35708054.739999995
2.8333333333333335,-36442714.379999995
2.8666666666666667,-37250583.11
2.9,-37272417.4
2.933333333333333,-36562160.79
2.966666666666667,-35261093.98
3.0,-34337631.949999996
3.033333333333333,-33980577.089999996
3.066666666666667,-33416738.659999996
3.1,-32810516.019999996
3.1333333333333333,-32231265.15
3.1666666666666665,-31572383.339999996
3.2,-31293675.049999997
3.2333333333333334,-31208906.63
3.2666666666666666,-31284684.459999997
3.3,-31205053.519999996
3.3333333333333335,-30968729.439999998
3.3666666666666667,-30589840.29
3.4,-29584178.58
3.433333333333333,-29255379.859999996
3.466666666666667,-29508400.749999996
3.5,-29868024.349999998
3.533333333333333,-30090220.359999996
3.566666666666667,-30077376.659999996
3.6,-30040129.929999996
3.6333333333333333,-29866739.979999997
3.6666666666666665,-29558491.179999996
3.7,-29250242.38
3.7333333333333334,-28826400.279999997
3.7666666666666666,-28573379.389999997
3.8,-28468061.049999997
3.8333333333333335,-28144399.81
3.8666666666666667,-28173940.319999997
3.9,-28524573.33
3.933333333333333,-28466776.679999996
3.966666666666667,-27725695.189999998
4.0,-26486278.139999997
4.033333333333333,-25395848.009999998
4.066666666666666,-24661188.369999997
4.1,-24209090.13
4.133333333333334,-23564336.389999997
4.166666666666667,-23450027.459999997
4.2,-23484705.45
4.233333333333333,-23293334.319999997
4.266666666666667,-23132788.069999997
4.3,-23485989.819999997
4.333333333333333,-23704332.72
4.366666666666666,-23365259.04
4.4,-23199575.31
4.433333333333334,-22850226.669999998
4.466666666666667,-22150245.02
4.5,-21005871.349999998
4.533333333333333,-21676312.49
4.566666666666666,-21704568.63
4.6,-20993027.65
4.633333333333334,-20047731.33
4.666666666666667,-18997116.669999998
4.7,-18220072.82
4.733333333333333,-17304317.009999998
4.766666666666667,-16244711.759999998
4.8,-15878666.309999999
4.833333333333333,-15782338.559999999
4.866666666666666,-15879950.679999998
4.9,-16040496.929999998
4.933333333333334,-15948022.29
4.966666666666667,-15581976.839999998
5.0,-14807501.729999999
5.033333333333333,-13907158.36
5.066666666666666,-13475610.04
5.1,-13598909.559999999
5.133333333333334,-13801840.02
5.166666666666667,-14128069.999999998
5.2,-14419621.989999998
5.233333333333333,-14679064.729999999
5.266666666666667,-14887132.669999998
5.3,-15041257.069999998
5.333333333333333,-15255746.86
5.366666666666666,-15756651.159999998
5.4,-15909491.19
5.433333333333334,-15696285.77
5.466666666666667,-15675735.849999998
5.5,-15725826.28
5.533333333333333,-15732248.129999999
5.566666666666666,-15927472.37
5.6,-16138109.049999999
5.633333333333334,-16072606.179999998
5.666666666666667,-16175355.78
5.7,-16316636.479999999
5.733333333333333,-16076459.29
5.766666666666667,-15684726.44
5.8,-15493355.309999999
5.833333333333333,-15083641.28
5.866666666666666,-14414484.509999998
5.9,-13964955.009999998
5.933333333333334,-13772299.509999998
5.966666666666667,-13476894.409999998
6.0,-13395979.1
6.033333333333333,-13056905.419999998
6.066666666666666,-12771775.28
6.1,-12624072.729999999
6.133333333333334,-11899688.049999999
6.166666666666667,-11270346.749999998
6.2,-11044297.629999999
6.233333333333333,-10706508.319999998
6.266666666666667,-10267253.78
6.3,-9667452.989999998
6.333333333333333,-8840318.709999999
6.366666666666666,-8434457.79
6.4,-8113365.289999999
6.433333333333334,-7756310.43
6.466666666666667,-7444208.52
6.5,-7363293.209999999
6.533333333333333,-7433933.56
6.566666666666666,-7417236.749999999
6.6,-7282377.899999999
6.633333333333334,-7392833.72
6.666666666666667,-7773007.239999999
6.7,-8005478.209999999
6.733333333333333,-8151896.39
6.766666666666667,-8892977.879999999
6.8,-9135723.809999999
6.833333333333333,-9252601.479999999
6.866666666666666,-9406725.879999999
6.9,-9354066.709999999
6.933333333333334,-9375901.0
6.966666666666667,-9619931.299999999
7.0,-9476081.86
7.033333333333333,-9342507.379999999
7.066666666666666,-9423422.69
7.1,-9292416.95
7.133333333333334,-9255170.219999999
7.166666666666667,-9083064.639999999
7.2,-8931508.979999999
7.233333333333333,-8837749.969999999
7.266666666666667,-8747844.069999998
7.3,-8750412.809999999
7.333333333333333,-8620691.44
7.366666666666666,-8496107.549999999
7.4,-8347120.629999999
7.433333333333334,-8275195.909999999
7.466666666666667,-8284186.499999999
7.5,-8424182.83
7.533333333333333,-8588582.19
7.566666666666666,-9047102.28
7.6,-9663599.879999999
7.633333333333334,-10119551.229999999
7.666666666666667,-10343031.61
7.7,-10264685.04
7.733333333333333,-10048910.879999999
7.766666666666667,-9802311.84
7.8,-9583968.94
7.833333333333333,-9495347.409999998
7.866666666666666,-9411863.36
7.9,-9612225.08
7.933333333333334,-9783046.29
7.966666666666667,-9983408.01
8.0,-10014232.889999999
8.033333333333333,-10042489.03
8.066666666666666,-10232575.79
8.1,-9943592.54
8.133333333333333,-9494063.04
8.166666666666666,-9459385.049999999
8.2,-9230767.19
8.233333333333333,-8859584.26
8.266666666666667,-8651516.319999998
8.3,-8297030.199999999
8.333333333333334,-8213546.149999999
8.366666666666667,-7860344.399999999
8.4,-7634295.279999999
8.433333333333334,-7674110.749999999
8.466666666666667,-7790988.419999999
8.5,-7554664.339999999
8.533333333333333,-7336321.4399999995
8.566666666666666,-7365861.949999999
8.6,-7439071.039999999
8.633333333333333,-7391549.35
8.666666666666666,-7377421.279999999
8.7,-7326046.4799999995
8.733333333333333,-7211737.55
8.766666666666667,-7132106.609999999
8.8,-6796886.039999999
8.833333333333334,-6587533.7299999995
8.866666666666667,-6626064.829999999
8.9,-6498912.199999999
8.933333333333334,-6428271.85
8.966666666666667,-6385887.64
9.0,-6153416.67
9.033333333333333,-6261303.749999999
9.066666666666666,-6484784.13
9.1,-6507902.789999999
9.133333333333333,-6531021.449999999
9.166666666666666,-6328090.989999999
9.2,-6150847.93
9.233333333333333,-5955623.6899999995
9.266666666666667,-5631962.449999999
9.3,-5471416.199999999
9.333333333333334,-5418757.029999999
9.366666666666667,-5273623.22
9.4,-5241513.97
9.433333333333334,-5327566.76
9.466666666666667,-5301879.359999999
9.5,-5372519.71
9.533333333333333,-5340410.46
9.566666666666666,-5283898.18
9.6,-5141333.109999999
9.633333333333333,-4988493.079999999
9.666666666666666,-4843359.27
9.7,-4750884.63
9.733333333333333,-4485020.04
9.766666666666667,-4501716.85
9.8,-4578779.05
9.833333333333334,-4784278.25
9.866666666666667,-4655841.25
9.9,-4451626.42
9.933333333333334,-4649419.399999999
9.966666666666667,-5337841.72
