Time (s),PPGG
0.0,273811722.63600004
0.03333333333333333,321228864.77000004
0.06666666666666667,324366909.45820004
0.1,310725819.29940003
0.13333333333333333,272683214.4516
0.16666666666666666,233126032.83
0.2,172146994.094
0.23333333333333334,105792692.6902
0.26666666666666666,39299802.56200001
0.3,-7374899.977000001
0.3333333333333333,-57742002.1018
0.36666666666666664,-88627489.2538
0.4,-116048258.29580002
0.43333333333333335,-137460216.2156
0.4666666666666667,-157367496.5562
0.5,-181877902.3858
0.5333333333333333,-195746674.02040002
0.5666666666666667,-208378046.33
0.6,-217910970.72980002
0.6333333333333333,-223424822.122
0.6666666666666666,-226265890.9722
0.7,-226731153.1184
0.7333333333333333,-227909157.27580002
0.7666666666666667,-228542705.73020002
0.8,-231660952.02920002
0.8333333333333334,-229730609.08220002
0.8666666666666667,-231126395.52080002
0.9,-234828694.3012
0.9333333333333333,-238570589.86
0.9666666666666667,-232670669.87840003
1.0,-234432726.51720002
1.0333333333333334,-238530993.0816
1.0666666666666667,-252043393.71060002
1.1,-268070189.768
1.1333333333333333,-282740796.1652
1.1666666666666667,-294421845.7932
1.2,-301786846.5756
1.2333333333333334,-307666968.16800004
1.2666666666666666,-312200799.29480004
1.3,-316289166.6646
1.3333333333333333,-314715194.7232
1.3666666666666667,-311012895.94280005
1.4,-310211061.18020004
1.4333333333333333,-309666605.47720003
1.4666666666666666,-307815456.087
1.5,-307181907.6326
1.5333333333333334,-306756242.2648
1.5666666666666667,-302727270.0626
1.6,-303459810.463
1.6333333333333333,-303152935.4304
1.6666666666666667,-303301423.34940004
1.7,-305301060.65860003
1.7333333333333334,-305429750.18840003
1.7666666666666666,-306795839.0432
1.8,-305796020.38860005
1.8333333333333333,-303321221.7386
1.8666666666666667,-305568338.9128
1.9,-306627552.735
1.9333333333333333,-304865496.09620005
1.9666666666666666,-300826624.6994
2.0,-304261645.2256
2.033333333333333,-306360274.48080003
2.066666666666667,-310359549.0992
2.1,-309854690.1746
2.1333333333333333,-313477795.39820004
2.1666666666666665,-317863138.606
2.2,-319862775.9152
2.2333333333333334,-324089732.0094
2.2666666666666666,-324366909.45820004
2.3,-322792937.51680005
2.3333333333333335,-321684227.7216
2.3666666666666667,-317328582.09760004
2.4,-316279267.47
2.433333333333333,-314507311.6366
2.466666666666667,-314230134.18780005
2.5,-313121424.3926
2.533333333333333,-311686041.17560005
2.566666666666667,-310428843.46140003
2.6,-307538278.63820004
2.6333333333333333,-306538459.9836
2.6666666666666665,-305202068.7126
2.7,-302222411.138
2.7333333333333334,-301737350.60260004
2.7666666666666666,-297253015.4488
2.8,-295510757.19920003
2.8333333333333335,-299133862.4228
2.8666666666666667,-298242934.9088
2.9,-301103802.14820004
2.933333333333333,-298817088.19560003
2.966666666666667,-291392692.24560004
3.0,-295649345.9236
3.033333333333333,-296342289.5456
3.066666666666667,-297213418.6704
3.1,-296530374.24300003
3.1333333333333333,-296777854.10800004
3.1666666666666665,-300292068.19100004
3.2,-301420576.3754
3.2333333333333334,-299915898.79620004
3.2666666666666666,-296886745.2486
3.3,-297084729.1406
3.3333333333333335,-300024789.9368
3.3666666666666667,-299807007.6556
3.4,-300222773.8288
3.433333333333333,-301549265.9052
3.466666666666667,-304538822.67440003
3.5,-304281443.61480004
3.533333333333333,-305053580.7936
3.566666666666667,-306776040.65400004
3.6,-305944508.3076
3.6333333333333333,-305419850.99380004
3.6666666666666665,-306667149.5134
3.7,-306776040.65400004
3.7333333333333334,-308270819.0386
3.7666666666666666,-304905092.8746
3.8,-307379891.5246
3.8333333333333335,-308062935.952
3.8666666666666667,-309132048.9688
3.9,-309676504.6718
3.933333333333333,-307617472.195
3.966666666666667,-301806644.9648
4.0,-305786121.194
4.033333333333333,-307369992.33000004
4.066666666666666,-308231222.2602
4.1,-311349468.55920005
4.133333333333334,-309429024.8068
4.166666666666667,-311517754.86740005
4.2,-312091908.1542
4.233333333333333,-310725819.29940003
4.266666666666667,-310003178.09360003
4.3,-309201343.33100003
4.333333333333333,-307845153.67080003
4.366666666666666,-307459085.08140004
4.4,-306261282.5348
4.433333333333334,-304885294.4854
4.466666666666667,-305320859.0478
4.5,-300816725.5048
4.533333333333333,-302628278.11660004
4.566666666666666,-300688035.975
4.6,-299896100.407
4.633333333333334,-300628640.80740005
4.666666666666667,-301272088.45640004
4.7,-302212511.9434
4.733333333333333,-303499407.2414
4.766666666666667,-302568882.949
4.8,-304578419.45280004
4.833333333333333,-304816000.1232
4.866666666666666,-304093358.9174
4.9,-303835979.8578
4.933333333333334,-301984830.46760005
4.966666666666667,-293847692.50640005
5.0,-298549809.94140005
5.033333333333333,-299262551.9526
5.066666666666666,-301400777.98620003
5.1,-301143398.92660004
5.133333333333334,-299787209.26640004
5.166666666666667,-300816725.5048
5.2,-300044588.32600003
5.233333333333333,-300044588.32600003
5.266666666666667,-299836705.2394
5.3,-302915354.76000005
5.333333333333333,-301410677.1808
5.366666666666666,-301826443.35400003
5.4,-300282168.9964
5.433333333333334,-301004810.2022
5.466666666666667,-296906543.63780004
5.5,-294847511.161
5.533333333333333,-293936785.25780004
5.566666666666666,-293540817.4738
5.6,-291155111.5752
5.633333333333334,-292006442.3108
5.666666666666667,-289660333.19060004
5.7,-287828982.18960005
5.733333333333333,-287136038.5676
5.766666666666667,-284869123.00420004
5.8,-283265453.47900003
5.833333333333333,-283839606.7658
5.866666666666666,-280879747.58040005
5.9,-281691481.53760004
5.933333333333334,-281929062.208
5.966666666666667,-274930331.6258
6.0,-278404948.9304
6.033333333333333,-277850594.0328
6.066666666666666,-275692569.61
6.1,-271683395.797
6.133333333333334,-266654604.94020003
6.166666666666667,-267020875.14040002
6.2,-267842508.29220003
6.233333333333333,-265456802.39360002
6.266666666666667,-265090532.19340003
6.3,-265140028.16640002
6.333333333333333,-263942225.61980003
6.366666666666666,-265625088.70180002
6.4,-266456621.0482
6.433333333333334,-265743879.03700003
6.466666666666667,-267901903.4598
6.5,-269109605.20100003
6.533333333333333,-271643799.01860005
6.566666666666666,-272366440.22440004
6.6,-270950855.3966
6.633333333333334,-275187710.6854
6.666666666666667,-275841057.52900004
6.7,-274385875.9228
6.733333333333333,-274732347.7338
6.766666666666667,-277335835.9136
6.8,-273584041.1602
6.833333333333333,-273455351.6304
6.866666666666666,-272950492.7058
6.9,-273197972.5708
6.933333333333334,-273554343.57640004
6.966666666666667,-266446721.85360003
7.0,-270624181.9748
7.033333333333333,-273207871.7654
7.066666666666666,-272010069.2188
7.1,-271980371.635
7.133333333333334,-272168456.3324
7.166666666666667,-270713274.72620004
7.2,-267159463.8648
7.233333333333333,-264367890.98760003
7.266666666666667,-264546076.49040002
7.3,-266347729.90760002
7.333333333333333,-265951762.1236
7.366666666666666,-265159826.55560002
7.4,-266268536.3508
7.433333333333334,-266852588.83220002
7.466666666666667,-267040673.52960002
7.5,-267337649.36760002
7.533333333333333,-263140390.85720003
7.566666666666666,-264635169.2418
7.6,-261200148.7156
7.633333333333334,-259537084.02280003
7.666666666666667,-258923333.95760003
7.7,-258834241.20620003
7.733333333333333,-259843959.0554
7.766666666666667,-260992265.629
7.8,-259180713.01720002
7.833333333333333,-260101338.115
7.866666666666666,-259111418.65500003
7.9,-255607103.7666
7.933333333333334,-258072003.22200003
7.966666666666667,-249350812.77940002
8.0,-254241014.91180003
8.033333333333333,-258081902.41660002
8.066666666666666,-256270349.8048
8.1,-256032769.1344
8.133333333333333,-256181257.0534
8.166666666666666,-254161821.35500002
8.2,-255023051.28520003
8.233333333333333,-254587486.72280002
8.266666666666667,-252865026.86240003
8.3,-252795732.50020003
8.333333333333334,-252429462.3
8.366666666666667,-250786195.99640003
8.4,-249905167.67700002
8.433333333333334,-247707546.4758
8.466666666666667,-247014602.85380003
8.5,-246658231.84820002
8.533333333333333,-244262626.75500003
8.566666666666666,-245826699.50180003
8.6,-245638614.80440003
8.633333333333333,-243381598.4356
8.666666666666666,-241570045.82380003
8.7,-238788372.1412
8.733333333333333,-239560509.32000002
8.766666666666667,-238412202.74640003
8.8,-241124582.06680003
8.833333333333334,-242886638.70560002
8.866666666666667,-244470509.84160003
8.9,-245717808.3612
8.933333333333334,-247479865.00000003
8.966666666666667,-239966376.29860002
9.0,-241946215.2186
9.033333333333333,-242322384.6134
9.066666666666666,-240144561.8014
9.1,-239253634.2874
9.133333333333333,-237847948.65420002
9.166666666666666,-236640246.91300002
9.2,-235977000.87480003
9.233333333333333,-239778291.6012
9.266666666666667,-242985630.6516
9.3,-249796276.53640002
9.333333333333334,-257022688.59440002
9.366666666666667,-259151015.4334
9.4,-264298596.6254
9.433333333333334,-263486862.66820002
9.466666666666667,-263249281.99780002
9.5,-265763677.42620003
9.533333333333333,-267317850.97840002
9.566666666666666,-277058658.4648
9.6,-287898276.5518
9.633333333333333,-298114245.379
9.666666666666666,-305607935.6912
9.7,-310329851.51540005
9.733333333333333,-309438924.0014
9.766666666666667,-307369992.33000004
9.8,-302608479.7274
9.833333333333334,-294708922.4366
9.866666666666667,-286591582.8646
9.9,-276375614.0374
9.933333333333334,-276326118.0644
9.966666666666667,-266545713.7996
