Time (s),PPGG
0.0,-14766880.011
0.03333333333333333,-14770529.5334
0.06666666666666667,-14784215.2424
0.1,-14794707.619299999
0.13333333333333333,-14810218.089499999
0.16666666666666666,-14824816.1791
0.2,-14851731.4068
0.23333333333333334,-14868610.4479
0.26666666666666666,-14880471.3957
0.3,-14882296.1569
0.3333333333333333,-14881383.7763
0.36666666666666664,-14865417.115799999
0.4,-14836677.126899999
0.43333333333333335,-14794251.429
0.4666666666666667,-14767792.3916
0.5,-14751825.731099999
0.5333333333333333,-14707575.272
0.5666666666666667,-14674729.5704
0.6,-14633216.253099998
0.6333333333333333,-14607213.406
0.6666666666666666,-14588053.4134
0.7,-14558401.0439
0.7333333333333333,-14513694.394499999
0.7666666666666667,-14413332.5285
0.8,-14278300.1997
0.8333333333333334,-14082138.3707
0.8666666666666667,-13752768.9741
0.9,-13361357.6967
0.9333333333333333,-12918396.9154
0.9666666666666667,-12318506.6709
1.0,-11607762.1835
1.0333333333333334,-10722753.0015
1.0666666666666667,-9760647.6588
1.1,-9005196.522
1.1333333333333333,-8525740.5167
1.1666666666666667,-8352388.202699999
1.2,-8352388.202699999
1.2333333333333334,-8491526.2442
1.2666666666666666,-8819983.2602
1.3,-9481459.1952
1.3333333333333333,-10474585.4783
1.3666666666666667,-11513786.9817
1.4,-12391497.1189
1.4333333333333333,-13019671.161999999
1.4666666666666666,-13481335.7456
1.5,-13859517.5043
1.5333333333333334,-14147373.5836
1.5666666666666667,-14329393.5133
1.6,-14458951.5585
1.6333333333333333,-14550189.6185
1.6666666666666667,-14599914.3612
1.7,-14647358.1524
1.7333333333333334,-14682028.6152
1.7666666666666666,-14696626.704799999
1.8,-14718980.0295
1.8333333333333333,-14752281.9214
1.8666666666666667,-14771898.1043
1.9,-14800181.9029
1.9333333333333333,-14817973.3246
1.9666666666666666,-14823447.608199999
2.0,-14851731.4068
2.033333333333333,-14861311.403099999
2.066666666666667,-14849906.645599999
2.1,-14834396.1754
2.1333333333333333,-14802006.664099999
2.1666666666666665,-14753194.302
2.2,-14738596.212399999
2.2333333333333334,-14719892.4101
2.2666666666666666,-14721260.980999999
2.3,-14718523.8392
2.3333333333333335,-14700276.2272
2.3666666666666667,-14668799.0965
2.4,-14619986.734399999
2.433333333333333,-14560681.995399999
2.466666666666667,-14478111.551099999
2.5,-14398278.248599999
2.533333333333333,-14341710.6514
2.566666666666667,-14282405.9124
2.6,-14234049.7406
2.6333333333333333,-14146005.012699999
2.6666666666666665,-14043362.1952
2.7,-13907873.676099999
2.7333333333333334,-13682515.6679
2.7666666666666666,-13327599.6145
2.8,-12875515.027199998
2.8333333333333335,-12194422.9093
2.8666666666666667,-11322187.0557
2.9,-10665273.023699999
2.933333333333333,-10369205.519
2.966666666666667,-10252420.802199999
3.0,-10175324.6415
3.033333333333333,-10228698.9066
3.066666666666667,-10340009.3398
3.1,-10478691.191
3.1333333333333333,-10514274.0344
3.1666666666666665,-10439002.6349
3.2,-10384259.798899999
3.2333333333333334,-10315831.253899999
3.2666666666666666,-10330885.5338
3.3,-10456794.056599999
3.3333333333333335,-10728227.2851
3.3666666666666667,-11190804.2493
3.4,-11690788.8181
3.433333333333333,-12021982.9759
3.466666666666667,-12267869.5476
3.5,-12538390.395499999
3.533333333333333,-12880989.3108
3.566666666666667,-13138736.8303
3.6,-13318475.8085
3.6333333333333333,-13453508.1373
3.6666666666666665,-13565274.7608
3.7,-13698026.1381
3.7333333333333334,-13821197.5191
3.7666666666666666,-13964441.2733
3.8,-14039256.4825
3.8333333333333335,-14153760.2478
3.8666666666666667,-14220820.2219
3.9,-14302022.0953
3.933333333333333,-14368169.6888
3.966666666666667,-14405577.293399999
4.0,-14479936.312299998
4.033333333333333,-14530573.4356
4.066666666666666,-14552926.7603
4.1,-14577104.846199999
4.133333333333334,-14601739.122399999
4.166666666666667,-14613600.0702
4.2,-14619530.5441
4.233333333333333,-14626373.398599999
4.266666666666667,-14628654.3501
4.3,-14635953.3949
4.333333333333333,-14633216.253099998
4.366666666666666,-14593527.696999999
4.4,-14506851.54
4.433333333333334,-14429755.3793
4.466666666666667,-14356308.740999999
4.5,-14275106.8676
4.533333333333333,-14206222.132299999
4.566666666666666,-14140530.7291
4.6,-14078488.848299999
4.633333333333334,-14014166.015999999
4.666666666666667,-13949386.9934
4.7,-13853587.030399999
4.733333333333333,-13773297.5376
4.766666666666667,-13669286.1492
4.8,-13498670.977
4.833333333333333,-13329424.375699999
4.866666666666666,-13050235.9121
4.9,-12687108.4333
4.933333333333334,-12270150.4991
4.966666666666667,-11890600.169499999
5.0,-11493258.4182
5.033333333333333,-11038436.6891
5.066666666666666,-10391102.6534
5.1,-9253364.0452
5.133333333333334,-7300413.3708999995
5.166666666666667,-5589243.5556
5.2,-4792735.2918
5.233333333333333,-4802771.478399999
5.266666666666667,-4708340.0863
5.3,-4645385.824899999
5.333333333333333,-4555972.526099999
5.366666666666666,-4733886.7431
5.4,-5332864.607
5.433333333333334,-6603810.7828
5.466666666666667,-8575921.4497
5.5,-10277055.078399999
5.533333333333333,-11443077.485199999
5.566666666666666,-12091780.091799999
5.6,-12684371.2915
5.633333333333334,-13135087.307899999
5.666666666666667,-13467193.846299998
5.7,-13712168.0374
5.733333333333333,-13883239.399899999
5.766666666666667,-13983145.0756
5.8,-13998655.545799999
5.833333333333333,-13944825.0904
5.866666666666666,-13752768.9741
5.9,-13402414.8237
5.933333333333334,-12821684.5718
5.966666666666667,-10715910.147
6.0,-2759038.9343999997
6.033333333333333,8592800.490799999
6.066666666666666,14473549.6481
6.1,14947987.560099998
6.133333333333334,13843550.843799999
6.166666666666667,10361906.4742
6.2,7251144.8185
6.233333333333333,4089289.8491999996
6.266666666666667,874060.6148
6.3,-2482131.4222999997
6.333333333333333,-4873480.9749
6.366666666666666,-6749335.4885
6.4,-8056320.698
6.433333333333334,-9031199.369099999
6.466666666666667,-9869677.1405
6.5,-10661167.310999999
6.533333333333333,-11477747.947999999
6.566666666666666,-12136030.5509
6.6,-12790207.4411
6.633333333333334,-13205340.6141
6.666666666666667,-13512812.8763
6.7,-13807511.810099998
6.733333333333333,-14054766.9527
6.766666666666667,-14235874.501799999
6.8,-14317532.565499999
6.833333333333333,-14345360.173799999
6.866666666666666,-14368625.879099999
6.9,-14307496.378899999
6.933333333333334,-14289248.7669
6.966666666666667,-14213977.3674
7.0,-14031501.247399999
7.033333333333333,-13397852.920699999
7.066666666666666,-11408407.0224
7.1,-10220487.4812
7.133333333333334,-9826795.2523
7.166666666666667,-9712747.677299999
7.2,-9780720.032
7.233333333333333,-10019763.7492
7.266666666666667,-10137004.656299999
7.3,-10100509.4323
7.333333333333333,-10445389.2991
7.366666666666666,-11180311.872399999
7.4,-12066233.434999999
7.433333333333334,-12837195.042
7.466666666666667,-13324862.4727
7.5,-13690270.902999999
7.533333333333333,-13946193.6613
7.566666666666666,-14153304.0575
7.6,-14296547.8117
7.633333333333334,-14362695.405199999
7.666666666666667,-14406033.4837
7.7,-14408770.6255
7.733333333333333,-14384136.349299999
7.766666666666667,-14356308.740999999
7.8,-14303390.666199999
7.833333333333333,-14242261.166
7.866666666666666,-14162427.863499999
7.9,-14070733.6132
7.933333333333334,-14027395.534699999
7.966666666666667,-13990444.120399999
8.0,-13984969.8368
8.033333333333333,-14014166.015999999
8.066666666666666,-14031045.0571
8.1,-14048380.2885
8.133333333333333,-14068908.852
8.166666666666666,-14080769.7998
8.2,-14113615.5014
8.233333333333333,-14181131.6658
8.266666666666667,-14237243.0727
8.3,-14289248.7669
8.333333333333334,-14350378.267099999
8.366666666666667,-14397365.867999999
8.4,-14411051.577
8.433333333333334,-14435685.8532
8.466666666666667,-14443897.2786
8.5,-14442072.5174
8.533333333333333,-14437054.424099999
8.566666666666666,-14434773.4726
8.6,-14427930.618099999
8.633333333333333,-14424737.285999998
8.666666666666666,-14427018.237499999
8.7,-14424281.0957
8.733333333333333,-14429299.189
8.766666666666667,-14434317.2823
8.8,-14437054.424099999
8.833333333333334,-14425193.4763
8.866666666666667,-14416069.6703
8.9,-14395084.916499998
8.933333333333334,-14358589.692499999
8.966666666666667,-14345360.173799999
9.0,-14332586.8454
9.033333333333333,-14340342.0805
9.066666666666666,-14352203.028299998
9.1,-14354940.1701
9.133333333333333,-14365888.7373
9.166666666666666,-14346728.7447
9.2,-14259596.3974
9.233333333333333,-14120458.355899999
9.266666666666667,-14002761.258499999
9.3,-13965809.8442
9.333333333333334,-14010060.303299999
9.366666666666667,-14109053.598399999
9.4,-14234962.121199999
9.433333333333334,-14336692.5581
9.466666666666667,-14426562.0472
9.5,-14535591.5289
9.533333333333333,-14622267.685899999
9.566666666666666,-14682940.9958
9.6,-14745895.257199999
9.633333333333333,-14805199.996199999
9.666666666666666,-14844432.362
9.7,-14878646.634499999
9.733333333333333,-14932933.280199999
9.766666666666667,-14941144.705599999
9.8,-14945250.4183
9.833333333333334,-14947987.560099998
9.866666666666667,-14945250.4183
9.9,-14942969.466799999
9.933333333333334,-14944338.0377
9.966666666666667,-14929739.948099999
