Time (s),PPGG
0.0,-180971940.4044
0.03333333333333333,-174574634.8604
0.06666666666666667,-169939852.2724
0.1,-166453973.5372
0.13333333333333333,-160937929.4712
0.16666666666666666,-154122840.708
0.2,-155748278.5452
0.23333333333333334,-171375982.0884
0.26666666666666666,-186279092.8608
0.3,-194732675.1868
0.3333333333333333,-199987604.7408
0.36666666666666664,-204544052.9752
0.4,-208101738.2012
0.43333333333333335,-209851205.4316
0.4666666666666667,-209798982.5292
0.5,-213147776.1456
0.5333333333333333,-213898480.3676
0.5666666666666667,-212377488.33519998
0.6,-211900954.3508
0.6333333333333333,-211737757.78079998
0.6666666666666666,-209707592.45
0.7,-203630152.1832
0.7333333333333333,-197591879.0932
0.7666666666666667,-192447923.20679998
0.8,-186474928.7448
0.8333333333333334,-179366086.1556
0.8666666666666667,-171082228.2624
0.9,-162080305.4612
0.9333333333333333,-153613667.4096
0.9666666666666667,-147875676.0084
1.0,-142555467.8264
1.0333333333333334,-140244604.39519998
1.0666666666666667,-152967408.9924
1.1,-164547837.5996
1.1333333333333333,-176741885.31
1.1666666666666667,-181624726.6844
1.2,-196260195.082
1.2333333333333334,-207448951.9212
1.2666666666666666,-209812038.2548
1.3,-205614622.47439998
1.3333333333333333,-206606857.62
1.3666666666666667,-196677978.3012
1.4,-190287200.62
1.4333333333333333,-184764628.6912
1.4666666666666666,-179790397.2376
1.5,-173863097.8152
1.5333333333333334,-163496851.6888
1.5666666666666667,-159345130.94799998
1.6,-153254634.9556
1.6333333333333333,-144774941.1784
1.6666666666666667,-138005547.4548
1.7,-131529907.5572
1.7333333333333334,-125785388.2932
1.7666666666666666,-118722240.7436
1.8,-112664384.0652
1.8333333333333333,-106848058.3104
1.8666666666666667,-108695443.48279999
1.9,-120171426.2852
1.9333333333333333,-125961640.5888
1.9666666666666666,-131086012.88679999
2.0,-136164690.14519998
2.033333333333333,-139852932.6272
2.066666666666667,-140192381.4928
2.1,-139180562.7588
2.1333333333333333,-136543306.1876
2.1666666666666665,-132966037.3732
2.2,-133520905.7112
2.2333333333333334,-130446282.3324
2.2666666666666666,-125034684.0712
2.3,-120987409.1352
2.3333333333333335,-115073165.4384
2.3666666666666667,-108623636.992
2.4,-104504555.5652
2.433333333333333,-99138652.3436
2.466666666666667,-92532455.19
2.5,-84672908.3788
2.533333333333333,-80325351.754
2.566666666666667,-74247911.48719999
2.6,-66486282.618
2.6333333333333333,-60415370.214
2.6666666666666665,-58620207.944
2.7,-64449589.4244
2.7333333333333334,-72707335.8664
2.7666666666666666,-74515553.862
2.8,-75618762.6752
2.8333333333333335,-78360465.0512
2.8666666666666667,-79737844.102
2.9,-79307005.1572
2.933333333333333,-78908805.5264
2.966666666666667,-76375994.76
3.0,-75462093.968
3.033333333333333,-71832602.2512
3.066666666666667,-67191291.8004
3.1,-62576092.800799996
3.1333333333333333,-56433373.905999996
3.1666666666666665,-48874108.7836
3.2,-43123061.6568
3.2333333333333334,-34767397.2728
3.2666666666666666,-26150618.3768
3.3,-21359167.0816
3.3333333333333335,-12624886.655199999
3.3666666666666667,-7278567.022
3.4,-5150483.7491999995
3.433333333333333,267642.3748
3.466666666666667,-4797979.158
3.5,-14909638.6352
3.533333333333333,-21946674.733599998
3.566666666666667,-29525523.444399998
3.6,-32006111.308399998
3.6333333333333333,-35263514.8456
3.6666666666666665,-37874659.9656
3.7,-36634366.0336
3.7333333333333334,-36196999.225999996
3.7666666666666666,-35237403.3944
3.8,-34421420.5444
3.8333333333333335,-32933067.825999998
3.8666666666666667,-30530814.3156
3.9,-28787874.948
3.933333333333333,-23402388.138
3.966666666666667,-19949148.7168
4.0,-15444923.3848
4.033333333333333,-12853361.8532
4.066666666666666,-9837489.239599999
4.1,-8342608.6584
4.133333333333334,-3923245.5428
4.166666666666667,3707826.0704
4.2,4641310.4508
4.233333333333333,8114133.4604
4.266666666666667,1455713.4043999999
4.3,-15327421.8544
4.333333333333333,-32822094.1584
4.366666666666666,-49337587.0424
4.4,-60669956.8632
4.433333333333334,-64678064.6224
4.466666666666667,-65794329.1612
4.5,-65422240.9816
4.533333333333333,-65232932.9604
4.566666666666666,-59390495.7544
4.6,-51798591.317999996
4.633333333333334,-46589356.8036
4.666666666666667,-40851365.4024
4.7,-35583380.1228
4.733333333333333,-30589565.0808
4.766666666666667,-26287703.4956
4.8,-21398334.2584
4.833333333333333,-18885107.0804
4.866666666666666,-16757023.807599999
4.9,-9524151.825199999
4.933333333333334,-4673949.7648
4.966666666666667,-2944066.1228
5.0,-8225107.128
5.033333333333333,-20706380.801599998
5.066666666666666,-25772002.3344
5.1,-28174255.8448
5.133333333333334,-33644604.8712
5.166666666666667,-32104029.2504
5.2,-34421420.5444
5.233333333333333,-35870606.086
5.266666666666667,-39376068.4096
5.3,-38364249.6756
5.333333333333333,-32365143.762399998
5.366666666666666,-18832884.178
5.4,-10261800.3216
5.433333333333334,-5959938.7364
5.466666666666667,-3968940.5823999997
5.5,-6899950.9796
5.533333333333333,-5959938.7364
5.566666666666666,-2519755.0408
5.6,979179.4199999999
5.633333333333334,4060330.6615999998
5.666666666666667,6847728.0772
5.7,5450765.438
5.733333333333333,1272933.246
5.766666666666667,-5633545.5964
5.8,-9563319.002
5.833333333333333,-16887581.0636
5.866666666666666,-20889160.96
5.9,-21058885.3928
5.933333333333334,-18989552.8852
5.966666666666667,-18676215.4708
6.0,-16894108.9264
6.033333333333333,-14968389.4004
6.066666666666666,-12357244.2804
6.1,-11456399.214
6.133333333333334,-7885658.262399999
6.166666666666667,430838.9448
6.2,3668658.8936
6.233333333333333,12494329.3992
6.266666666666667,26176729.827999998
6.3,33540159.0664
6.333333333333333,38684114.9528
6.366666666666666,40962339.07
6.4,39441347.037599996
6.433333333333334,33951414.4228
6.466666666666667,28050226.4516
6.5,25308524.0756
6.533333333333333,19348585.3392
6.566666666666666,14831304.2816
6.6,12363772.143199999
6.633333333333334,13669344.7032
6.666666666666667,15555897.0524
6.7,16907164.652
6.733333333333333,17879816.2092
6.766666666666667,21163331.1976
6.8,21156803.3348
6.833333333333333,25491304.234
6.866666666666666,32861261.3352
6.9,43704041.446
6.933333333333334,57216717.442
6.966666666666667,67706992.9616
7.0,74730973.3344
7.033333333333333,78347409.3256
7.066666666666666,79920624.2604
7.1,76389050.4856
7.133333333333334,69874243.4112
7.166666666666667,65245988.686
7.2,58274231.2156
7.233333333333333,52523184.0888
7.266666666666667,50055651.9504
7.3,52229430.2628
7.333333333333333,54677378.8128
7.366666666666666,54148621.926
7.4,55584751.742
7.433333333333334,57686723.563599996
7.466666666666667,59377440.028799996
7.5,62354145.4656
7.533333333333333,66323086.048
7.566666666666666,72648585.1012
7.6,76597942.0952
7.633333333333334,82629687.3224
7.666666666666667,91305216.9836
7.7,98551144.6916
7.733333333333333,104478444.114
7.766666666666667,112213961.532
7.8,115686784.5416
7.833333333333333,111978958.4712
7.866666666666666,106978615.56639999
7.9,104236913.1904
7.933333333333334,102866062.0024
7.966666666666667,102076190.6036
8.0,102409111.6064
8.033333333333333,104439276.9372
8.066666666666666,107076533.5084
8.1,108806417.1504
8.133333333333333,111482840.8984
8.166666666666666,118363208.2896
8.2,119564335.0448
8.233333333333333,123474524.862
8.266666666666667,132365473.9956
8.3,140329466.6116
8.333333333333334,146543991.99719998
8.366666666666667,156812320.1816
8.4,166499668.5768
8.433333333333334,171656680.1888
8.466666666666667,166205914.75079998
8.5,161949748.2052
8.533333333333333,159469160.3412
8.566666666666666,154501456.7504
8.6,142803526.6128
8.633333333333333,134095357.6376
8.666666666666666,129950164.7596
8.7,127208462.3836
8.733333333333333,127417353.9932
8.766666666666667,129897941.8572
8.8,132698394.9984
8.833333333333334,131549491.14559999
8.866666666666667,134291193.5216
8.9,142072405.9792
8.933333333333334,148358737.8556
8.966666666666667,153385192.2116
9.0,159260268.7316
9.033333333333333,162015026.8332
9.066666666666666,162380587.15
9.1,163118235.6464
9.133333333333333,167935798.3928
9.166666666666666,176252295.6
9.2,178765522.778
9.233333333333333,186553263.0984
9.266666666666667,201058174.24
9.3,210921774.9308
9.333333333333334,211894426.488
9.366666666666667,206580746.1688
9.4,199184677.6164
9.433333333333334,193975443.102
9.466666666666667,192754732.7584
9.5,189719276.5564
9.533333333333333,184895185.9472
9.566666666666666,185913532.544
9.6,188576900.5664
9.633333333333333,188792320.0388
9.666666666666666,193903636.6112
9.7,200052883.36879998
9.733333333333333,201586931.1268
9.766666666666667,201123452.868
9.8,201606514.7152
9.833333333333334,201704432.6572
9.866666666666667,203747653.7136
9.9,206939778.6228
9.933333333333334,210601909.6536
9.966666666666667,213898480.3676
