Time (s),PPGG
0.0,77537607.19739999
0.03333333333333333,69122929.8942
0.06666666666666667,62800090.255799994
0.1,59236393.96259999
0.13333333333333333,55398203.1342
0.16666666666666666,51841605.83759999
0.2,48036543.66
0.23333333333333334,44550936.329399996
0.26666666666666666,40002845.841
0.3,38254126.345199995
0.3333333333333333,36197783.663399994
0.36666666666666664,34479826.4862
0.4,31332604.660199996
0.43333333333333335,28563995.986199997
0.4666666666666667,26088812.505
0.5,24633518.202
0.5333333333333333,21554920.0098
0.5666666666666667,18817073.6544
0.6,17787719.1474
0.6333333333333333,16902710.9046
0.6666666666666666,15868623.733199999
0.7,14316309.809999999
0.7333333333333333,12865748.1714
0.7666666666666667,12610184.293799998
0.8,11592661.4478
0.8333333333333334,10624831.578
0.8666666666666667,8372083.3236
0.9,7806529.9278
0.9333333333333333,7527302.7282
0.9666666666666667,6855264.3834
1.0,4536258.8274
1.0333333333333334,3428815.3578
1.0666666666666667,2730747.3587999996
1.1,3293934.4223999996
1.1333333333333333,3054934.8702
1.1666666666666667,1313314.3709999998
1.2,-937067.5512
1.2333333333333334,-1552313.9231999998
1.2666666666666666,-1393769.6657999998
1.3,-2527242.7896
1.3333333333333333,-3833458.164
1.3666666666666667,-4888842.3252
1.4,-5944226.4864
1.4333333333333333,-7153422.240599999
1.4666666666666666,-8095222.456199999
1.5,-8961300.041399999
1.5333333333333334,-8525894.9166
1.5666666666666667,-8596884.8826
1.6,-9952793.233199999
1.6333333333333333,-10395297.3546
1.6666666666666667,-11389156.8786
1.7,-12515531.0058
1.7333333333333334,-14098607.247599998
1.7666666666666666,-15329099.9916
1.8,-15996405.671999998
1.8333333333333333,-15624891.5166
1.8666666666666667,-15814198.0926
1.9,-15646188.506399998
1.9333333333333333,-15459248.2626
1.9666666666666666,-15702980.479199998
2.0,-16367919.827399999
2.033333333333333,-16069761.970199998
2.066666666666667,-15837861.4146
2.1,-16422345.467999998
2.1333333333333333,-16888512.911399998
2.1666666666666665,-18424262.5092
2.2,-18954320.922
2.2333333333333334,-19377894.3858
2.2666666666666666,-19806200.514
2.3,-20686476.0924
2.3333333333333335,-21159742.532399997
2.3666666666666667,-19858259.8224
2.4,-19302171.7554
2.433333333333333,-19467815.0094
2.466666666666667,-19881923.144399997
2.5,-19844061.8292
2.533333333333333,-19247746.1148
2.566666666666667,-18876231.9594
2.6,-18182896.6248
2.6333333333333333,-17880006.1032
2.6666666666666665,-17877639.770999998
2.7,-18313044.8958
2.7333333333333334,-18424262.5092
2.7666666666666666,-18270450.916199997
2.8,-17328650.7006
2.8333333333333335,-16668444.0168
2.8666666666666667,-16197543.908999998
2.9,-16112355.9498
2.933333333333333,-15729010.133399999
2.966666666666667,-15045140.1276
3.0,-14839269.2262
3.033333333333333,-15163456.737599999
3.066666666666667,-15705346.811399998
3.1,-16337157.508799998
3.1333333333333333,-16680275.6778
3.1666666666666665,-17465897.9682
3.2,-17612610.5646
3.2333333333333334,-17172472.775399998
3.2666666666666666,-17193769.7652
3.3,-17179571.772
3.3333333333333335,-17252928.0702
3.3666666666666667,-17404373.331
3.4,-17449333.6428
3.433333333333333,-17667036.205199998
3.466666666666667,-17778253.8186
3.5,-17233997.4126
3.533333333333333,-16696840.003199998
3.566666666666667,-16798592.2878
3.6,-16571424.396599999
3.6333333333333333,-16857750.5928
3.6666666666666665,-16841186.2674
3.7,-16893245.575799998
3.7333333333333334,-16703938.999799998
3.7666666666666666,-16495701.766199999
3.8,-16240137.8886
3.8333333333333335,-15480545.2524
3.8666666666666667,-15248644.6968
3.9,-15684049.8216
3.933333333333333,-16079227.298999999
3.966666666666667,-16332424.844399998
4.0,-16699206.335399998
4.033333333333333,-17122779.7992
4.066666666666666,-17331017.0328
4.1,-17229264.7482
4.133333333333334,-18625400.7462
4.166666666666667,-19751774.8734
4.2,-20165883.008399997
4.233333333333333,-20542129.828199998
4.266666666666667,-21114782.220599998
4.3,-21933533.161799997
4.333333333333333,-22009255.7922
4.366666666666666,-21850711.534799997
4.4,-22283750.3274
4.433333333333334,-22901363.0316
4.466666666666667,-23029144.970399998
4.5,-22811442.408
4.533333333333333,-22480155.9
4.566666666666666,-23083570.610999998
4.6,-23606530.0272
4.633333333333334,-23677519.993199997
4.666666666666667,-23540272.725599997
4.7,-23952014.528399996
4.733333333333333,-24924577.062599998
4.766666666666667,-26008357.210199997
4.8,-27051909.710399996
4.833333333333333,-27075573.032399997
4.866666666666666,-26727722.198999997
4.9,-26969088.0834
4.933333333333334,-27269612.2728
4.966666666666667,-27700284.7332
5.0,-28904747.823
5.033333333333333,-28928411.145
5.066666666666666,-29576786.167799998
5.1,-30433398.4242
5.133333333333334,-30963456.836999997
5.166666666666667,-31962049.025399998
5.2,-32660117.024399996
5.233333333333333,-33159413.118599996
5.266666666666667,-33467036.304599997
5.3,-33795956.480399996
5.333333333333333,-33760461.4974
5.366666666666666,-34517687.8014
5.4,-35539943.311799996
5.433333333333334,-37288662.8076
5.466666666666667,-37440108.068399996
5.5,-37224771.838199995
5.533333333333333,-37844750.8746
5.566666666666666,-39053946.6288
5.6,-39844301.5836
5.633333333333334,-40308102.6948
5.666666666666667,-40310469.026999995
5.7,-40658319.8604
5.733333333333333,-41486536.130399995
5.766666666666667,-41505466.787999995
5.8,-40547102.246999994
5.833333333333333,-40386191.6574
5.866666666666666,-39893994.5598
5.9,-39804073.9362
5.933333333333334,-38859907.388399996
5.966666666666667,-38152374.0606
6.0,-38329848.9756
6.033333333333333,-38154740.392799996
6.066666666666666,-37866047.8644
6.1,-37463771.3904
6.133333333333334,-37433009.0718
6.166666666666667,-37376217.099
6.2,-37489801.044599995
6.233333333333333,-37858948.8678
6.266666666666667,-38294353.992599994
6.3,-39240886.8726
6.333333333333333,-40194518.749199994
6.366666666666666,-40767171.1416
6.4,-41446308.482999995
6.433333333333334,-43306245.592199996
6.466666666666667,-44714213.2512
6.5,-44837262.525599994
6.533333333333333,-44910618.8238
6.566666666666666,-45267934.985999994
6.6,-45350756.613
6.633333333333334,-45594488.8296
6.666666666666667,-46493695.0656
6.7,-46730328.2856
6.733333333333333,-46526823.7164
6.766666666666667,-45859518.036
6.8,-46434536.76059999
6.833333333333333,-46628576.000999995
6.866666666666666,-45871349.697
6.9,-45670211.45999999
6.933333333333334,-45343657.616399996
6.966666666666667,-46380111.12
7.0,-46704298.6314
7.033333333333333,-46458200.0826
7.066666666666666,-46550487.038399994
7.1,-46470031.743599996
7.133333333333334,-46100883.92039999
7.166666666666667,-46354081.465799995
7.2,-46105616.5848
7.233333333333333,-45835854.713999994
7.266666666666667,-46578883.024799995
7.3,-48426988.473
7.333333333333333,-49761599.833799995
7.366666666666666,-49532065.6104
7.4,-50940033.26939999
7.433333333333334,-51699625.9056
7.466666666666667,-51806110.8546
7.5,-51110409.1878
7.533333333333333,-52123199.369399995
7.566666666666666,-52930118.6496
7.6,-52601198.473799996
7.633333333333334,-52620129.1314
7.666666666666667,-53240108.167799994
7.7,-53325296.127
7.733333333333333,-54993560.327999994
7.766666666666667,-55251490.5378
7.8,-55656133.344
7.833333333333333,-55871469.5742
7.866666666666666,-56600299.891799994
7.9,-56325805.356599994
7.933333333333334,-55838340.92339999
7.966666666666667,-55310648.8428
8.0,-54293125.9968
8.033333333333333,-53441246.4048
8.066666666666666,-51153003.167399995
8.1,-50367380.877
8.133333333333333,-50592182.436
8.166666666666666,-51763516.875
8.2,-51441695.6958
8.233333333333333,-51323379.0858
8.266666666666667,-50899805.621999994
8.3,-50648974.4088
8.333333333333334,-50369747.209199995
8.366666666666667,-50625311.086799994
8.4,-51401468.0484
8.433333333333334,-51974120.440799996
8.466666666666667,-52149229.0236
8.5,-52918286.98859999
8.533333333333333,-53405751.421799995
8.566666666666666,-54167710.3902
8.6,-55376906.14439999
8.633333333333333,-56654725.5324
8.666666666666666,-57833158.967999995
8.7,-57411951.836399995
8.733333333333333,-57539733.775199994
8.766666666666667,-57953841.91019999
8.8,-60481084.69979999
8.833333333333334,-61950576.99599999
8.866666666666667,-62163546.893999994
8.9,-61321132.630799994
8.933333333333334,-61751805.091199994
8.966666666666667,-61737607.098
9.0,-62916040.533599995
9.033333333333333,-64189127.257199995
9.066666666666666,-65843193.464999996
9.1,-68422495.563
9.133333333333333,-71467965.1044
9.166666666666666,-73500644.46419999
9.2,-73557436.43699999
9.233333333333333,-74300464.7478
9.266666666666667,-75635076.10859999
9.3,-77151895.04879999
9.333333333333334,-77537607.19739999
9.366666666666667,-76449094.3854
9.4,-74981968.4214
9.433333333333334,-74570226.6186
9.466666666666667,-74115890.8362
9.5,-73571634.4302
9.533333333333333,-72662962.8654
9.566666666666666,-71553153.06359999
9.6,-71020728.3186
9.633333333333333,-70225640.6994
9.666666666666666,-70275333.67559999
9.7,-69863591.8728
9.733333333333333,-68384634.2478
9.766666666666667,-66699805.72139999
9.8,-65000779.201799996
9.833333333333334,-64025850.33539999
9.866666666666667,-63791583.44759999
9.9,-63824712.0984
9.933333333333334,-65010244.5306
9.966666666666667,-65679916.54319999
