Time (s),PPGG
0.0,59488502.673599996
0.03333333333333333,60323891.84639999
0.06666666666666667,60590141.611999996
0.1,61716207.134399995
0.13333333333333333,62146115.01279999
0.16666666666666666,63001045.4528
0.2,63702088.4136
0.23333333333333334,64190620.0936
0.26666666666666666,65096846.35999999
0.3,65895595.656799994
0.3333333333333333,67160892.70799999
0.36666666666666664,68831671.0536
0.4,69669502.88479999
0.43333333333333335,71721335.9408
0.4666666666666667,73770726.33839999
0.5,76225598.0304
0.5333333333333333,78387350.7144
0.5666666666666667,79418152.55919999
0.6,79647762.4488
0.6333333333333333,79850503.096
0.6666666666666666,79918897.53119999
0.7,80038587.7928
0.7333333333333333,79637991.81519999
0.7666666666666667,79498760.28639999
0.8,78292087.0368
0.8333333333333334,76445437.28639999
0.8666666666666667,74198191.55839999
0.9,72363755.1
0.9333333333333333,71010522.3464
0.9666666666666667,69730569.3448
1.0,68555650.65439999
1.0333333333333334,66257109.099999994
1.0666666666666667,64205276.04399999
1.1,63001045.4528
1.1333333333333333,62456332.629599996
1.1666666666666667,62522284.406399995
1.2,61884750.563999996
1.2333333333333334,61613615.481599994
1.2666666666666666,60954097.713599995
1.3,59952607.7696
1.3333333333333333,58951117.8256
1.3666666666666667,58088859.410399996
1.4,58186565.7464
1.4333333333333333,58533423.239199996
1.4666666666666666,56173815.2248
1.5,46430050.867199995
1.5333333333333334,26453990.472
1.5666666666666667,12413589.988799999
1.6,-5364077.846399999
1.6333333333333333,-24248269.9368
1.6666666666666667,-36166000.270399995
1.7,-44610270.35919999
1.7333333333333334,-58516324.630399995
1.7666666666666666,-69415466.41119999
1.8,-76577340.83999999
1.8333333333333333,-77473796.47279999
1.8666666666666667,-80038587.7928
1.9,-79965308.04079999
1.9333333333333333,-79611122.5728
1.9666666666666666,-76306205.7576
2.0,-75610048.1136
2.033333333333333,-75475701.90159999
2.066666666666667,-76201171.44639999
2.1,-74806413.5
2.1333333333333333,-73316391.87599999
2.1666666666666665,-72153686.4776
2.2,-70021245.6944
2.2333333333333334,-69369055.90159999
2.2666666666666666,-68983115.87439999
2.3,-68338254.0568
2.3333333333333335,-67778885.2832
2.3666666666666667,-68189251.8944
2.4,-67493094.25039999
2.433333333333333,-66222911.88239999
2.466666666666667,-64527706.9528
2.5,-63079210.52159999
2.533333333333333,-62580908.208
2.566666666666667,-62400151.48639999
2.6,-61286299.256
2.6333333333333333,-59686358.00399999
2.6666666666666665,-57915430.664
2.7,-56124962.05679999
2.7333333333333334,-54637383.091199994
2.7666666666666666,-53061868.4232
2.8,-51288498.42479999
2.8333333333333335,-50355402.91599999
2.8666666666666667,-50128235.6848
2.9,-49976790.86399999
2.933333333333333,-49182926.883999996
2.966666666666667,-51588945.40799999
3.0,-54600743.21519999
3.033333333333333,-54632497.774399996
3.066666666666667,-53941225.44719999
3.1,-53887486.9624
3.1333333333333333,-55162554.647199996
3.1666666666666665,-56545099.301599994
3.2,-60377630.331199996
3.2333333333333334,-60289694.6288
3.2666666666666666,-60807538.209599994
3.3,-61735748.401599996
3.3333333333333335,-64410459.349599995
3.3666666666666667,-65358210.8088
3.4,-65714838.9352
3.433333333333333,-65563394.11439999
3.466666666666667,-64664495.823199995
3.5,-62722582.39519999
3.533333333333333,-61909177.147999994
3.566666666666667,-60944327.08
3.6,-60443582.107999995
3.6333333333333333,-62549153.64879999
3.6666666666666665,-62278018.56639999
3.7,-61826126.762399994
3.7333333333333334,-61664911.308
3.7666666666666666,-60800210.2344
3.8,-60526632.493599996
3.8333333333333335,-62822731.389599994
3.8666666666666667,-62265805.274399996
3.9,-61110427.85119999
3.933333333333333,-59063480.111999996
3.966666666666667,-58323354.616799995
4.0,-57996038.3912
4.033333333333333,-57605213.047199994
4.066666666666666,-56718528.04799999
4.1,-55839171.024
4.133333333333334,-55013552.484799996
4.166666666666667,-52937292.844799995
4.2,-52275332.4184
4.233333333333333,-51671995.79359999
4.266666666666667,-50545930.271199994
4.3,-50379829.49999999
4.333333333333333,-49786263.50879999
4.366666666666666,-48711493.8128
4.4,-48149682.380799994
4.433333333333334,-47983581.60959999
4.466666666666667,-47675806.6512
4.5,-47790611.59599999
4.533333333333333,-47260554.72319999
4.566666666666666,-46215096.927999996
4.6,-45848698.168
4.633333333333334,-46144259.8344
4.666666666666667,-47666036.01759999
4.7,-48115485.1632
4.733333333333333,-47924957.808
4.766666666666667,-47333834.4752
4.8,-46158915.78479999
4.833333333333333,-46151587.809599996
4.866666666666666,-45462758.1408
4.9,-44864306.83279999
4.933333333333334,-43100707.467999995
4.966666666666667,-41334665.4448
5.0,-39128944.9096
5.033333333333333,-36940322.9832
5.066666666666666,-34221644.184
5.1,-31752116.541599996
5.133333333333334,-29558609.298399996
5.166666666666667,-27340675.471199997
5.2,-24629324.6472
5.233333333333333,-23613178.7528
5.266666666666667,-23346928.9872
5.3,-22697181.852799997
5.333333333333333,-20740612.4744
5.366666666666666,-18857322.847999997
5.4,-17946211.264799997
5.433333333333334,-17985293.7992
5.466666666666667,-17699502.7664
5.5,-17496762.1192
5.533333333333333,-17660420.231999997
5.566666666666666,-17167003.2352
5.6,-15984756.5696
5.633333333333334,-15369206.6528
5.666666666666667,-14841592.438399998
5.7,-14392143.292799998
5.733333333333333,-14470308.361599999
5.766666666666667,-15151810.0552
5.8,-15611029.834399998
5.833333333333333,-15767359.972
5.866666666666666,-15589045.908799998
5.9,-16224137.092799999
5.933333333333334,-17032657.023199998
5.966666666666667,-17865603.5376
6.0,-18620384.9832
6.033333333333333,-18420086.9944
6.066666666666666,-18021933.675199997
6.1,-18073229.501599997
6.133333333333334,-17555385.9208
6.166666666666667,-17127920.700799998
6.2,-16722439.406399999
6.233333333333333,-16734652.698399998
6.266666666666667,-16204595.825599998
6.3,-15066317.0112
6.333333333333333,-13959792.756
6.366666666666666,-13617820.579999998
6.4,-13073107.7568
6.433333333333334,-12550378.859199999
6.466666666666667,-11736973.612
6.5,-11214244.714399999
6.533333333333333,-10750139.6184
6.566666666666666,-10149245.651999999
6.6,-8270841.3423999995
6.633333333333334,-7437894.828
6.666666666666667,-7386599.001599999
6.7,-7657734.084
6.733333333333333,-8197561.590399999
6.766666666666667,-9140427.7328
6.8,-9570335.6112
6.833333333333333,-9260117.994399998
6.866666666666666,-9558122.3192
6.9,-9834142.7184
6.933333333333334,-9853683.985599998
6.966666666666667,-10974864.1912
7.0,-11424313.3368
7.033333333333333,-12042305.911999999
7.066666666666666,-12738463.556
7.1,-13463933.100799998
7.133333333333334,-13796134.643199999
7.166666666666667,-13283176.379199998
7.2,-12230390.6088
7.233333333333333,-12142454.906399999
7.266666666666667,-12701823.68
7.3,-12188865.416
7.333333333333333,-12008108.6944
7.366666666666666,-11180047.4968
7.4,-11329049.6592
7.433333333333334,-11253327.248799998
7.466666666666667,-11529347.647999998
7.5,-11075013.1856
7.533333333333333,-10947994.9488
7.566666666666666,-11233785.9816
7.6,-11385230.802399999
7.633333333333334,-11089669.136
7.666666666666667,-11121423.6952
7.7,-10781894.1776
7.733333333333333,-11329049.6592
7.766666666666667,-11651480.568
7.8,-11346148.268
7.833333333333333,-11172719.521599999
7.866666666666666,-10803878.1032
7.9,-10039326.023999998
7.933333333333334,-9829257.4016
7.966666666666667,-9699796.506399998
8.0,-9777961.575199999
8.033333333333333,-10073523.2416
8.066666666666666,-9865897.2776
8.1,-9895209.178399999
8.133333333333333,-9355381.671999998
8.166666666666666,-9565450.2944
8.2,-9880553.228
8.233333333333333,-10281149.205599999
8.266666666666667,-10588924.163999999
8.3,-11033487.9928
8.333333333333334,-11702776.394399999
8.366666666666667,-11712547.027999999
8.4,-10860059.246399999
8.433333333333334,-11053029.26
8.466666666666667,-11568430.1824
8.5,-11522019.672799999
8.533333333333333,-11434083.9704
8.566666666666666,-11343705.609599998
8.6,-10811206.078399999
8.633333333333333,-10268935.9136
8.666666666666666,-10391068.8336
8.7,-10669531.891199999
8.733333333333333,-9799945.500799999
8.766666666666667,-9338283.063199999
8.8,-8549304.399999999
8.833333333333334,-8309923.8768
8.866666666666667,-7936197.1416
8.9,-7218055.572
8.933333333333334,-6795475.668799999
8.966666666666667,-6832115.544799999
9.0,-6568308.4376
9.033333333333333,-6956691.123199999
9.066666666666666,-6854099.470399999
9.1,-6595177.68
9.133333333333333,-6096875.3664
9.166666666666666,-5622999.6367999995
9.2,-5139353.2736
9.233333333333333,-4521360.698399999
9.266666666666667,-4575099.1832
9.3,-4350374.6104
9.333333333333334,-4042599.652
9.366666666666667,-4201372.448
9.4,-4579984.5
9.433333333333334,-5324995.312
9.466666666666667,-6001611.6888
9.5,-6915165.930399999
9.533333333333333,-8234201.466399999
9.566666666666666,-9211264.826399999
9.6,-9572778.269599998
9.633333333333333,-9533695.735199999
9.666666666666666,-8891276.576
9.7,-8866849.991999999
9.733333333333333,-8612813.518399999
9.766666666666667,-8351449.069599999
9.8,-7909327.899199999
9.833333333333334,-7271794.056799999
9.866666666666667,-6363125.131999999
9.9,-4983023.136
9.933333333333334,-2752876.0168
9.966666666666667,0.0
