Time (s),PPGG
0.0,44226707.7644
0.03333333333333333,43542393.032
0.06666666666666667,42366775.414799996
0.1,41621722.6884
0.13333333333333333,41115572.7384
0.16666666666666666,40664761.849599995
0.2,40151863.2336
0.23333333333333334,39578226.6236
0.26666666666666666,39213798.6596
0.3,38858818.827999994
0.3333333333333333,38304078.4828
0.36666666666666664,37613015.0844
0.4,37332270.5788
0.43333333333333335,37434850.30199999
0.4666666666666667,36958394.4824
0.5,36081067.902399994
0.5333333333333333,35395403.436799996
0.5666666666666667,34712438.437599994
0.6,34055118.3692
0.6333333333333333,33312765.109199997
0.6666666666666666,32745877.1652
0.7,32338257.738799997
0.7333333333333333,31740325.931199998
0.7666666666666667,31357001.7024
0.8,30682135.102399997
0.8333333333333334,30068006.4964
0.8666666666666667,29695480.133199997
0.9,29811557.188399997
0.9333333333333333,30258318.8776
0.9666666666666667,30560659.1144
1.0,30691583.234799996
1.0333333333333334,30609249.5096
1.0666666666666667,30285313.541599996
1.1,28905886.2112
1.1333333333333333,27527808.613999996
1.1666666666666667,25720515.859199997
1.2,23407073.1544
1.2333333333333334,21069335.251999997
1.2666666666666666,19293086.360799998
1.3,18303731.9252
1.3333333333333333,17358918.6852
1.3666666666666667,15416652.610399999
1.4,13346161.881599998
1.4333333333333333,11078610.1056
1.4666666666666666,9222726.955599999
1.5,7751517.767599999
1.5333333333333334,6214171.652799999
1.5666666666666667,4845542.188
1.6,3159725.4211999997
1.6333333333333333,1965211.5391999998
1.6666666666666667,1236355.6112
1.7,406269.6932
1.7333333333333334,-801741.5207999999
1.7666666666666666,-1940916.3416
1.8,-3169173.5535999998
1.8333333333333333,-4255708.7796
1.8666666666666667,-5303101.742799999
1.9,-6737868.1344
1.9333333333333333,-8308957.5792
1.9666666666666666,-9573657.587599998
2.0,-10741176.805599999
2.033333333333333,-11715684.175999999
2.066666666666667,-12582212.8904
2.1,-13786174.9048
2.1333333333333333,-14806573.203999998
2.1666666666666665,-15801326.572399998
2.2,-16945900.325999998
2.2333333333333334,-17697701.718399998
2.2666666666666666,-18502142.705599997
2.3,-18973199.5924
2.3333333333333335,-19144615.7088
2.3666666666666667,-19515792.3388
2.4,-20108325.2136
2.433333333333333,-20564535.0352
2.466666666666667,-20895219.6692
2.5,-21001848.592
2.533333333333333,-21397320.4196
2.566666666666667,-22018197.6916
2.6,-22440664.183199998
2.6333333333333333,-22390724.0548
2.6666666666666665,-22464959.380799998
2.7,-22397472.720799997
2.7333333333333334,-22323237.3948
2.7666666666666666,-22192313.2744
2.8,-22022246.8912
2.8333333333333335,-21813038.245199997
2.8666666666666667,-21397320.4196
2.9,-20954607.93
2.933333333333333,-20583431.299999997
2.966666666666667,-20573983.1676
3.0,-20706257.021199998
3.033333333333333,-20667114.758399997
3.066666666666667,-20854727.6732
3.1,-20866875.272
3.1333333333333333,-20559136.102399997
3.1666666666666665,-20447108.246799998
3.2,-20436310.381199997
3.2333333333333334,-20549687.97
3.2666666666666666,-20621223.8296
3.3,-20479501.843599997
3.3333333333333335,-20147467.4764
3.3666666666666667,-19912613.8996
3.4,-19722301.5184
3.433333333333333,-19590027.6648
3.466666666666667,-19629169.9276
3.5,-19499595.5404
3.533333333333333,-18981297.9916
3.566666666666667,-18638465.7588
3.6,-18510241.104799997
3.6333333333333333,-18647913.8912
3.6666666666666665,-18410360.847999997
3.7,-17624816.1256
3.7333333333333334,-16846020.069199998
3.7666666666666666,-16550428.498399999
3.8,-16532881.966799999
3.8333333333333335,-16555827.4312
3.8666666666666667,-16750189.011999998
3.9,-16607117.292799998
3.933333333333333,-16272383.459199999
3.966666666666667,-16100967.342799999
4.0,-16160355.6036
4.033333333333333,-16381711.848399999
4.066666666666666,-16581472.361999998
4.1,-16756937.678
4.133333333333334,-16860867.1344
4.166666666666667,-17049829.782399997
4.2,-17275235.2268
4.233333333333333,-17497941.2048
4.266666666666667,-17855620.5028
4.3,-18237594.9984
4.333333333333333,-18471098.842
4.366666666666666,-18411710.5812
4.4,-18419808.9804
4.433333333333334,-18496743.7728
4.466666666666667,-18437355.512
4.5,-18337475.2552
4.533333333333333,-18539935.2352
4.566666666666666,-18893565.3336
4.6,-19162162.240399998
4.633333333333334,-19544136.735999998
4.666666666666667,-19502295.0068
4.7,-18983997.457999997
4.733333333333333,-18795034.81
4.766666666666667,-18963751.459999997
4.8,-19070380.382799998
4.833333333333333,-19182408.238399997
4.866666666666666,-19228299.1672
4.9,-19214801.835199997
4.933333333333334,-19299835.0268
4.966666666666667,-19572481.133199997
5.0,-19832979.6408
5.033333333333333,-19891018.168399997
5.066666666666666,-19807334.709999997
5.1,-19851875.9056
5.133333333333334,-19905865.233599998
5.166666666666667,-20069182.950799998
5.2,-20268943.464399997
5.233333333333333,-20528092.238799997
5.266666666666667,-20880372.604
5.3,-21439162.148799997
5.333333333333333,-21818437.178
5.366666666666666,-22226056.604399998
5.4,-22720058.955599997
5.433333333333334,-23168170.378
5.466666666666667,-23910523.637999997
5.5,-24724412.7576
5.533333333333333,-25739412.123999998
5.566666666666666,-26533055.245599996
5.6,-27135036.2528
5.633333333333334,-27723519.928
5.666666666666667,-28220221.745599996
5.7,-28476671.0536
5.733333333333333,-28730420.8952
5.766666666666667,-29457927.089999996
5.8,-30351450.468399998
5.833333333333333,-31107301.060399998
5.866666666666666,-31809162.324399997
5.9,-32372001.0688
5.933333333333334,-32945637.678799998
5.966666666666667,-33640750.2768
6.0,-34339912.0744
6.033333333333333,-35057970.1368
6.066666666666666,-35678847.4088
6.1,-36357763.208399996
6.133333333333334,-36755934.502399996
6.166666666666667,-36955695.015999995
6.2,-37262084.4524
6.233333333333333,-37660255.7464
6.266666666666667,-37828972.3964
6.3,-38008486.912
6.333333333333333,-38148859.164799996
6.366666666666666,-38275734.085599996
6.4,-38390461.4076
6.433333333333334,-38586172.721599996
6.466666666666667,-38630713.9172
6.5,-38456598.3344
6.533333333333333,-38134012.099599995
6.566666666666666,-38255488.0876
6.6,-38223094.4908
6.633333333333334,-38229843.156799994
6.666666666666667,-38229843.156799994
6.7,-38444450.735599995
6.733333333333333,-38366166.20999999
6.766666666666667,-38837223.0968
6.8,-39150361.1992
6.833333333333333,-39352821.17919999
6.866666666666666,-39599822.35479999
6.9,-39763140.072
6.933333333333334,-39810380.734
6.966666666666667,-39810380.734
7.0,-40207202.2948
7.033333333333333,-40455553.2036
7.066666666666666,-40521690.130399995
7.1,-40500094.3992
7.133333333333334,-40510892.2648
7.166666666666667,-40554083.727199994
7.2,-40678259.1816
7.233333333333333,-40919861.424399994
7.266666666666667,-40984648.61799999
7.3,-40945506.3552
7.333333333333333,-40613471.988
7.366666666666666,-40365121.0792
7.4,-40181557.364
7.433333333333334,-39937255.6548
7.466666666666667,-39887315.5264
7.5,-39856271.6628
7.533333333333333,-40305732.818399996
7.566666666666666,-40645865.5848
7.6,-40587827.0572
7.633333333333334,-40671510.515599996
7.666666666666667,-40922560.8908
7.7,-41191157.79759999
7.733333333333333,-41378770.7124
7.766666666666667,-41486749.3684
7.8,-41525891.63119999
7.833333333333333,-41358524.71439999
7.866666666666666,-41377420.9792
7.9,-41273491.5228
7.933333333333334,-41112873.272
7.966666666666667,-40959003.687199995
8.0,-40807833.568799995
8.033333333333333,-40845626.0984
8.066666666666666,-40883418.628
8.1,-40799735.169599995
8.133333333333333,-40593225.989999995
8.166666666666666,-40539236.662
8.2,-40759243.173599996
8.233333333333333,-40981949.151599996
8.266666666666667,-40922560.8908
8.3,-40926610.090399995
8.333333333333334,-40910413.291999996
8.366666666666667,-40914462.4916
8.4,-40852374.7644
8.433333333333334,-40720100.910799995
8.466666666666667,-40830779.033199996
8.5,-40855074.230799995
8.533333333333333,-40583777.857599996
8.566666666666666,-40321929.616799995
8.6,-40274688.954799995
8.633333333333333,-40262541.356
8.666666666666666,-40224748.8264
8.7,-40213950.9608
8.733333333333333,-40120819.37
8.766666666666667,-40089775.5064
8.8,-40080327.374
8.833333333333334,-40069529.5084
8.866666666666667,-40058731.642799996
8.9,-40116770.17039999
8.933333333333334,-40213950.9608
8.966666666666667,-40428558.5396
9.0,-40691756.5136
9.033333333333333,-41075080.7424
9.066666666666666,-41254595.257999994
9.1,-41546137.6292
9.133333333333333,-41825532.401599996
9.166666666666666,-42121123.972399995
9.2,-42528743.39879999
9.233333333333333,-42891821.629599996
9.266666666666667,-43096981.076
9.3,-43318337.3208
9.333333333333334,-43446561.9748
9.366666666666667,-43574786.6288
9.4,-43663869.019999996
9.433333333333334,-43887924.731199995
9.466666666666667,-43827186.7372
9.5,-43990504.454399996
9.533333333333333,-43904121.529599994
9.566666666666666,-43769148.209599994
9.6,-43902771.796399996
9.633333333333333,-44002652.0532
9.666666666666666,-44059340.8476
9.7,-43837984.6028
9.733333333333333,-43931116.1936
9.766666666666667,-43970258.4564
9.8,-44013449.9188
9.833333333333334,-43999952.586799994
9.866666666666667,-44226707.7644
9.9,-44080936.5788
9.933333333333334,-44021548.317999996
9.966666666666667,-43952711.92479999
