Time (s),PPGG
0.0,-109898837.0529
0.03333333333333333,-107279403.1182
0.06666666666666667,-103724217.4962
0.1,-101517319.2516
0.13333333333333333,-99773265.9276
0.16666666666666666,-97505996.6064
0.2,-94725573.1341
0.23333333333333334,-92186633.9682
0.26666666666666666,-90352024.0293
0.3,-89429688.13679999
0.3333333333333333,-88443627.219
0.36666666666666664,-86558708.0496
0.4,-84127095.2421
0.43333333333333335,-81041462.4381
0.4666666666666667,-77878688.814
0.5,-75809302.46609999
0.5333333333333333,-75410182.57079999
0.5666666666666667,-75021124.5216
0.6,-74521386.1653
0.6333333333333333,-73233469.8645
0.6666666666666666,-72817580.22569999
0.7,-72451999.8174
0.7333333333333333,-72589511.7141
0.7666666666666667,-71730900.8469
0.8,-70040510.7021
0.8333333333333334,-68853212.8623
0.8666666666666667,-67776595.32959999
0.9,-66780472.5657
0.9333333333333333,-65271195.650699995
0.9666666666666667,-64187870.2206
1.0,-62470648.4862
1.0333333333333334,-60270458.139
1.0666666666666667,-59780781.6288
1.1,-58915462.864199996
1.1333333333333333,-58492865.328
1.1666666666666667,-57825429.536699995
1.2,-56400001.3392
1.2333333333333334,-55239535.089
1.2666666666666666,-53793983.1993
1.3,-52415510.283599995
1.3333333333333333,-51369078.2892
1.3666666666666667,-50299168.6539
1.4,-48736228.5597
1.4333333333333333,-46569577.6995
1.4666666666666666,-43289415.8709
1.5,-40760538.5511
1.5333333333333334,-39120457.6368
1.5666666666666667,-37305971.3901
1.6,-35444529.8616
1.6333333333333333,-33019624.9515
1.6666666666666667,-31322526.9093
1.7,-30718816.1433
1.7333333333333334,-30054734.300699998
1.7666666666666666,-29444315.6373
1.8,-27965224.2606
1.8333333333333333,-26992579.1376
1.8666666666666667,-28072550.619
1.9,-29048549.6907
1.9333333333333333,-30530995.0161
1.9666666666666666,-31342650.6015
2.0,-31305757.165799998
2.033333333333333,-30245909.3766
2.066666666666667,-30390129.1707
2.1,-31265509.7814
2.1333333333333333,-32103996.9564
2.1666666666666665,-31993316.649299998
2.2,-31694815.215
2.2333333333333334,-30889867.527
2.2666666666666666,-31030733.3724
2.3,-31030733.3724
2.3333333333333335,-30316342.2993
2.3666666666666667,-29092151.0238
2.4,-28122859.8495
2.433333333333333,-27187108.1622
2.466666666666667,-27173692.367399998
2.5,-26023287.9633
2.533333333333333,-24597859.7658
2.566666666666667,-22702878.750299998
2.6,-21032612.2977
2.6333333333333333,-19952640.8163
2.6666666666666665,-18943102.2576
2.7,-18050951.9034
2.7333333333333334,-17567983.290599998
2.7666666666666666,-17339914.779
2.8,-17152093.6518
2.8333333333333335,-17038059.395999998
2.8666666666666667,-16709372.4234
2.9,-15525428.5323
2.933333333333333,-13596908.0298
2.966666666666667,-12141294.294
3.0,-10196004.048
3.033333333333333,-6563677.6059
3.066666666666667,-4413796.4892
3.1,-2790485.3183999998
3.1333333333333333,-1210775.4807
3.1666666666666665,-539985.7407
3.2,211298.7681
3.2333333333333334,2606018.1399
3.2666666666666666,6013630.0191
3.3,9119386.5153
3.3333333333333335,11396717.682599999
3.3666666666666667,13969196.3355
3.4,16514843.398799999
3.433333333333333,19892269.7397
3.466666666666667,23769434.4369
3.5,27935038.7223
3.533333333333333,31738416.5481
3.566666666666667,34911252.0183
3.6,39113749.7394
3.6333333333333333,43819339.7655
3.6666666666666665,48092270.4093
3.7,50815676.753699996
3.7333333333333334,54229996.5303
3.7666666666666666,56624715.9021
3.8,60475049.0097
3.8333333333333335,63382922.5326
3.8666666666666667,67578712.3563
3.9,69862751.421
3.933333333333333,72552618.2784
3.966666666666667,75500739.1857
4.0,78945244.5006
4.033333333333333,83187989.6061
4.066666666666666,84452428.266
4.1,85009183.7502
4.133333333333334,84925335.0327
4.166666666666667,85388179.9533
4.2,85133279.8521
4.233333333333333,84137157.0882
4.266666666666667,83862133.2948
4.3,83754806.9364
4.333333333333333,84120387.3447
4.366666666666666,84217651.857
4.4,84492675.6504
4.433333333333334,84298146.6258
4.466666666666667,83201405.40089999
4.5,82678189.4037
4.533333333333333,82456828.7895
4.566666666666666,81514369.2048
4.6,79854164.5983
4.633333333333334,78468983.7852
4.666666666666667,76070910.4647
4.7,74994292.932
4.733333333333333,74340272.9355
4.766666666666667,73578926.5806
4.8,72451999.8174
4.833333333333333,71969031.20459999
4.866666666666666,71123836.1322
4.9,70043864.6508
4.933333333333334,69654806.60159999
4.966666666666667,68937061.5798
5.0,68537941.6845
5.033333333333333,68994078.7077
5.066666666666666,69017556.3486
5.1,68755948.35
5.133333333333334,68849858.9136
5.166666666666667,68843151.01619999
5.2,67847028.2523
5.233333333333333,67679330.81729999
5.266666666666667,68078450.7126
5.3,69208731.4245
5.333333333333333,70167960.7527
5.366666666666666,70281995.0085
5.4,70074050.1891
5.433333333333334,69859397.4723
5.466666666666667,68890106.298
5.5,67783303.227
5.533333333333333,66663084.3612
5.566666666666666,65505972.0597
5.6,64543388.7828
5.633333333333334,63319197.5073
5.666666666666667,61756257.4131
5.7,59656685.5269
5.733333333333333,58083683.5866
5.766666666666667,56906447.5929
5.8,56329568.4165
5.833333333333333,56202118.365899995
5.866666666666666,56604592.2099
5.9,57043959.489599995
5.933333333333334,58231257.329399996
5.966666666666667,59281043.2725
6.0,60300643.6773
6.033333333333333,62031281.2065
6.066666666666666,62393507.666099995
6.1,62933493.4068
6.133333333333334,63641176.582499996
6.166666666666667,64177808.3745
6.2,65026357.3956
6.233333333333333,65663607.6486
6.266666666666667,66163346.0049
6.3,67166176.6662
6.333333333333333,68242794.1989
6.366666666666666,69087989.2713
6.4,69715177.67819999
6.433333333333334,70241747.6241
6.466666666666667,70342366.0851
6.5,69725239.5243
6.533333333333333,68772718.0935
6.566666666666666,67531757.0745
6.6,66756994.9248
6.633333333333334,67531757.0745
6.666666666666667,68105282.3022
6.7,68296457.3781
6.733333333333333,67776595.32959999
6.766666666666667,68142175.7379
6.8,69185253.7836
6.833333333333333,70100881.7787
6.866666666666666,71499478.3866
6.9,72830996.0205
6.933333333333334,73806995.0922
6.966666666666667,74501262.47309999
7.0,75289440.41759999
7.033333333333333,76466676.4113
7.066666666666666,76117865.7465
7.1,76044078.8751
7.133333333333334,76825548.9222
7.166666666666667,77861919.0705
7.2,78401904.8112
7.233333333333333,78958660.2954
7.266666666666667,80149312.0839
7.3,81041462.4381
7.333333333333333,81832994.3313
7.366666666666666,83466367.3482
7.4,85502214.2091
7.433333333333334,86803546.3047
7.466666666666667,88034445.4776
7.5,90452642.4903
7.533333333333333,93457780.5255
7.566666666666666,96053736.8193
7.6,98371315.37099999
7.633333333333334,99937609.4139
7.666666666666667,101691724.58399999
7.7,104046196.5714
7.733333333333333,105189893.0781
7.766666666666667,106578427.8399
7.8,107141891.2215
7.833333333333333,108003856.03739999
7.866666666666666,109160968.3389
7.9,109523194.7985
7.933333333333334,108211800.85679999
7.966666666666667,108097766.601
8.0,107162014.9137
8.033333333333333,106796434.5054
8.066666666666666,105937823.6382
8.1,105401191.8462
8.133333333333333,104113275.5454
8.166666666666666,103184231.7555
8.2,103164108.0633
8.233333333333333,103482733.1898
8.266666666666667,103600121.3943
8.3,102744864.4758
8.333333333333334,102064012.8897
8.366666666666667,101591106.123
8.4,101742033.8145
8.433333333333334,103023242.2179
8.466666666666667,103301619.96
8.5,102466486.73369999
8.533333333333333,102275311.6578
8.566666666666666,103046719.8588
8.6,104683446.8244
8.633333333333333,105528641.8968
8.666666666666666,105857328.8694
8.7,105364298.41049999
8.733333333333333,104690154.7218
8.766666666666667,104914869.28469999
8.8,106803142.4028
8.833333333333334,109898837.0529
8.866666666666667,108795387.9306
8.9,105733232.7675
8.933333333333334,93846838.5747
8.966666666666667,84221005.8057
9.0,76117865.7465
9.033333333333333,70979616.3381
9.066666666666666,66565819.8489
9.1,57711395.2809
9.133333333333333,47877617.692499995
9.166666666666666,41233445.3178
9.2,39543055.173
9.233333333333333,40790724.0894
9.266666666666667,39549763.0704
9.3,34227046.4835
9.333333333333334,29216247.1257
9.366666666666667,25439700.8895
9.4,26123906.4243
9.433333333333334,27398406.9303
9.466666666666667,25275357.4032
9.5,21270742.6554
9.533333333333333,18282374.3637
9.566666666666666,19026950.9751
9.6,22635799.7763
9.633333333333333,24031042.4355
9.666666666666666,22344006.2394
9.7,20559705.531
9.733333333333333,21163416.297
9.766666666666667,28159753.2852
9.8,39596718.3522
9.833333333333334,58580067.9942
9.866666666666667,74806471.8048
9.9,76459968.5139
9.933333333333334,74917152.1119
9.966666666666667,67193008.2558
