Time (s),PPGG
0.0,47130102.1623
0.03333333333333333,-299646.4261
0.06666666666666667,-76409838.6555
0.1,-105817995.0456
0.13333333333333333,-126151145.3881
0.16666666666666666,-118060691.8834
0.2,-67120799.4464
0.23333333333333334,53037417.4197
0.26666666666666666,175764032.2238
0.3,277515397.20089996
0.3333333333333333,363299888.3301
0.36666666666666664,426953350.5602
0.4,499681818.8379
0.43333333333333335,542531257.7702
0.4666666666666667,644967528.8641
0.5,810586389.2328
0.5333333333333333,1025860943.0695
0.5666666666666667,1144264088.0112998
0.6,1082194471.1763
0.6333333333333333,872399166.2739999
0.6666666666666666,573095193.2324
0.7,355209434.8254
0.7333333333333333,190104254.0443
0.7666666666666667,60956644.3952
0.8,-108043939.9252
0.8333333333333334,-242627991.8764
0.8666666666666667,-325287598.8477
0.9,-407733172.65749997
0.9333333333333333,-458544645.19759995
0.9666666666666667,-513808007.49689996
1.0,-549851191.8935
1.0333333333333334,-573437646.2908
1.0666666666666667,-514407300.3491
1.1,-501394084.1299
1.1333333333333333,-487225088.8386
1.1666666666666667,-440908312.69
1.2,-398187293.65459996
1.2333333333333334,-344507776.7504
1.2666666666666666,-295536989.39919996
1.3,-204273249.3356
1.3333333333333333,-150465312.5345
1.3666666666666667,-152006351.29729998
1.4,-217457692.084
1.4333333333333333,-304226735.7561
1.4666666666666666,-419633416.43689996
1.5,-523910372.7197
1.5333333333333334,-620182488.7623999
1.5666666666666667,-674546911.7833999
1.6,-691840791.2326
1.6333333333333333,-758747557.5174999
1.6666666666666667,-867947276.5148
1.7,-918459102.6287999
1.7333333333333334,-926635169.3980999
1.7666666666666666,-915976317.9554
1.8,-885241155.964
1.8333333333333333,-816707737.6516999
1.8666666666666667,-762172088.1014999
1.9,-758918784.0467
1.9333333333333333,-782119978.7533
1.9666666666666666,-735203909.7524999
2.0,-639017406.9743999
2.033333333333333,-551820296.9793
2.066666666666667,-413597681.2826
2.1,-421474101.62579995
2.1333333333333333,-570783635.0882
2.1666666666666665,-789910785.8319
2.2,-903305554.7945999
2.2333333333333334,-997052079.5316
2.2666666666666666,-1068881608.5309999
2.3,-1114984351.5181
2.3333333333333335,-1125514783.0639
2.3666666666666667,-1128040374.3695998
2.4,-1189938764.6754
2.433333333333333,-1211085241.0316
2.466666666666667,-1199741483.4721
2.5,-1149614917.0488
2.533333333333333,-1135146275.3314
2.566666666666667,-1130737192.2045
2.6,-1109975975.539
2.6333333333333333,-1086903200.7293
2.6666666666666665,-1020980986.9872999
2.7,-996067526.9886999
2.7333333333333334,-919358041.9071
2.7666666666666666,-814653019.3012999
2.8,-712345168.1042999
2.8333333333333335,-697576879.9607999
2.8666666666666667,-770348154.8707999
2.9,-890763211.5307
2.933333333333333,-1030912125.6809
2.966666666666667,-1142894275.7777
3.0,-1205049505.8773
3.033333333333333,-1259499542.1629
3.066666666666667,-1340232850.6806998
3.1,-1351662221.5047998
3.1333333333333333,-1371738532.0535
3.1666666666666665,-1402644920.5741
3.2,-1399348809.8869998
3.2333333333333334,-1367885935.1464999
3.2666666666666666,-1284541422.0584
3.3,-1153595933.8527
3.3333333333333335,-908527963.9352
3.3666666666666667,-707208372.2283
3.4,-538336207.8047999
3.433333333333333,-419719029.7015
3.466666666666667,-302728503.6256
3.5,-220539769.60959998
3.533333333333333,-192158972.3947
3.566666666666667,-102179431.3001
3.6,-94517044.1184
3.6333333333333333,-334020151.8369
3.6666666666666665,-626689096.872
3.7,-721591400.6811
3.7333333333333334,-691797984.6003
3.7666666666666666,-631269406.5281
3.8,-563934573.9202
3.8333333333333335,-565561225.9476
3.8666666666666667,-536623942.5128
3.9,-564405446.8755
3.933333333333333,-599849338.4199
3.966666666666667,-609095570.9966999
4.0,-611878002.0962
4.033333333333333,-565218772.8892
4.066666666666666,-437483782.10599995
4.1,-346262848.67469996
4.133333333333334,-219127150.7437
4.166666666666667,-21788575.8407
4.2,137152449.8892
4.233333333333333,279912568.60969996
4.266666666666667,425455118.42969996
4.3,654727441.0285
4.333333333333333,927748141.8378999
4.366666666666666,1120549213.7171
4.4,1238267452.5421
4.433333333333334,1220245860.3437998
4.466666666666667,1106337411.7935
4.5,931386705.5833999
4.533333333333333,778524221.6401
4.566666666666666,669024856.2167
4.6,632125539.1740999
4.633333333333334,576776563.6101999
4.666666666666667,488209641.38149995
4.7,416465725.64669997
4.733333333333333,370020529.6012
4.766666666666667,366082319.4296
4.8,338557654.86069995
4.833333333333333,334833477.8506
4.866666666666666,333592085.5139
4.9,375028905.5803
4.933333333333334,456917993.1702
4.966666666666667,552333976.5669
5.0,618298996.9412
5.033333333333333,665172259.3097
5.066666666666666,815723185.1087999
5.1,887723940.6373999
5.133333333333334,1009080743.2078999
5.166666666666667,1123031998.3904998
5.2,1245244933.6069999
5.233333333333333,1402644920.5741
5.266666666666667,1383210709.5098999
5.3,1222343385.3265
5.333333333333333,1043154822.5186999
5.366666666666666,921327146.9928999
5.4,788669393.4951999
5.433333333333334,689143973.3977
5.466666666666667,601861250.138
5.5,542659677.6671
5.533333333333333,520999521.7233
5.566666666666666,500794791.27769995
5.6,500366724.9547
5.633333333333334,434102058.1543
5.666666666666667,434016444.8897
5.7,344422163.48579997
5.733333333333333,98840513.9807
5.766666666666667,-55563008.72539999
5.8,-94088977.7954
5.833333333333333,-102307851.197
5.866666666666666,-71401462.67639999
5.9,27567471.201199997
5.933333333333334,129318836.1783
5.966666666666667,195412276.4495
6.0,249776699.4705
6.033333333333333,282823419.60609996
6.066666666666666,444846522.8616
6.1,488038414.8523
6.133333333333334,390482099.84059995
6.166666666666667,313344548.436
6.2,340483953.3142
6.233333333333333,439624113.72099996
6.266666666666667,601518797.0796
6.3,609908897.0103999
6.333333333333333,603958775.1207
6.366666666666666,499895851.99939996
6.4,421859361.31649995
6.433333333333334,407433526.23139995
6.466666666666667,361245169.97969997
6.5,339156947.7129
6.533333333333333,352940683.3135
6.566666666666666,390353679.94369996
6.6,383247778.9819
6.633333333333334,399728332.4174
6.666666666666667,468989463.4788
6.7,571425734.5727
6.733333333333333,645652434.9808999
6.766666666666667,705667333.4655
6.8,848470258.8183
6.833333333333333,985194642.3844999
6.866666666666666,1088829499.1828
6.9,1082194471.1763
6.933333333333334,928903920.91
6.966666666666667,709819576.7986
7.0,460256910.48959994
7.033333333333333,231455460.84609997
7.066666666666666,13098829.4838
7.1,-118488758.20639999
7.133333333333334,-197723834.5937
7.166666666666667,-213391062.01549998
7.2,-216772785.96719998
7.233333333333333,-238604168.44019997
7.266666666666667,-247037075.00329998
7.3,-276402424.7611
7.333333333333333,-284664104.79499996
7.366666666666666,-299261166.40929997
7.4,-306281454.10649997
7.433333333333334,-286547596.6162
7.466666666666667,-249648279.5736
7.5,-213819128.3385
7.533333333333333,-141090660.0608
7.566666666666666,-50811472.54009999
7.6,28209570.6857
7.633333333333334,134284405.5251
7.666666666666667,253115616.78989998
7.7,329097389.1224
7.733333333333333,255855241.2571
7.766666666666667,90878480.3729
7.8,-58473859.7218
7.833333333333333,-209838111.5346
7.866666666666666,-330424394.7237
7.9,-415780819.52989995
7.933333333333334,-483286878.667
7.966666666666667,-566203325.4320999
8.0,-645267175.2902
8.033333333333333,-743465589.7864
8.066666666666666,-834172843.6300999
8.1,-837939827.2724999
8.133333333333333,-823642412.0842999
8.166666666666666,-834643716.5854
8.2,-811956201.4663999
8.233333333333333,-762600154.4245
8.266666666666667,-746290827.5181999
8.3,-686361542.2982
8.333333333333334,-622665273.4358
8.366666666666667,-550750131.1718
8.4,-512395388.631
8.433333333333334,-478792182.2755
8.466666666666667,-440865506.0577
8.5,-501436890.7622
8.533333333333333,-579002508.4898
8.566666666666666,-709733963.5339999
8.6,-759946143.2219
8.633333333333333,-809730256.5868
8.666666666666666,-803608908.1679
8.7,-733406031.1959
8.733333333333333,-674076038.8281
8.766666666666667,-653828501.7501999
8.8,-706352239.5823
8.833333333333334,-703013322.2629
8.866666666666667,-683493497.9340999
8.9,-648948545.668
8.933333333333334,-617785317.3535999
8.966666666666667,-470188049.1832
9.0,-321520615.2053
9.033333333333333,-264587794.24629998
9.066666666666666,-158256119.6131
9.1,-5265215.772899999
9.133333333333333,125466239.27129999
9.166666666666666,146013422.7753
9.2,54621262.814799994
9.233333333333333,-101665751.71249999
9.266666666666667,-378410629.532
9.3,-651902203.2967
9.333333333333334,-924922904.1061
9.366666666666667,-1060833961.6586
9.4,-1173501017.8722
9.433333333333334,-1174228730.6213
9.466666666666667,-1151669635.3992
9.5,-1174057504.0921
9.533333333333333,-1198842544.1938
9.566666666666666,-1213739252.2342
9.6,-1202951980.8946
9.633333333333333,-1152525768.0451999
9.666666666666666,-1088829499.1828
9.7,-1064600945.3009999
9.733333333333333,-1009080743.2078999
9.766666666666667,-943372562.6273999
9.8,-835243009.4375999
9.833333333333334,-683621917.831
9.866666666666667,-575663591.1704
9.9,-472157154.269
9.933333333333334,-385045657.53849995
9.966666666666667,-346262848.67469996
