Time (s),PPGG
0.0,68439325.9731
0.03333333333333333,82015554.41070001
0.06666666666666667,88020712.8504
0.1,97775817.39
0.13333333333333333,107740709.124
0.16666666666666666,114195411.5517
0.2,117683123.6586
0.23333333333333334,121099657.9674
0.26666666666666666,121882613.7465
0.3,122021223.1428
0.3333333333333333,122699285.3247
0.36666666666666664,122751732.1233
0.4,121882613.7465
0.43333333333333335,121616633.5536
0.4666666666666667,119784741.80250001
0.5,117795509.6556
0.5333333333333333,114970874.93100001
0.5666666666666667,113753359.96350001
0.6,111973915.011
0.6333333333333333,111007395.4368
0.6666666666666666,109460214.87810001
0.7,106575640.9551
0.7333333333333333,101907875.8797
0.7666666666666667,95056076.2626
0.8,89373091.0143
0.8333333333333334,85188585.726
0.8666666666666667,81416162.4267
0.9,78771345.2973
0.9333333333333333,77898480.7206
0.9666666666666667,76077827.5692
1.0,73193253.6462
1.0333333333333334,70372365.1215
1.0666666666666667,66772267.0176
1.1,63370717.5084
1.1333333333333333,59909228.8008
1.1666666666666667,56732451.2856
1.2,54331137.1497
1.2333333333333334,52926312.1872
1.2666666666666666,52064686.210200004
1.3,50547475.250700004
1.3333333333333333,47692870.9269
1.3666666666666667,41073335.703600004
1.4,33071452.7172
1.4333333333333333,23342571.5769
1.4666666666666666,14984.7996
1.5,-12167657.2752
1.5333333333333334,-20147063.0622
1.5666666666666667,-26620496.4894
1.6,-41702697.2868
1.6333333333333333,-47794018.324200004
1.6666666666666667,-48427126.1073
1.7,-50199078.660000004
1.7333333333333334,-57024654.8778
1.7666666666666666,-56001942.3051
1.8,-34948298.8671
1.8333333333333333,-24915975.534900002
1.8666666666666667,-22229950.2066
1.9,-24211689.953700002
1.9333333333333333,-27804295.6578
1.9666666666666666,-30052015.5978
2.0,-33697068.1005
2.033333333333333,-36881338.0155
2.066666666666667,-38533412.1714
2.1,-39458723.5467
2.1333333333333333,-39717211.3398
2.1666666666666665,-39822104.937
2.2,-40324095.7236
2.2333333333333334,-40912249.1079
2.2666666666666666,-41867530.0824
2.3,-42380759.4687
2.3333333333333335,-42380759.4687
2.3666666666666667,-42129764.0754
2.4,-41511641.0919
2.433333333333333,-40781132.1114
2.466666666666667,-39290144.5512
2.5,-37094871.4098
2.533333333333333,-33708306.7002
2.566666666666667,-31220829.9666
2.6,-27223634.6733
2.6333333333333333,-23889516.7623
2.6666666666666665,-20843856.2436
2.7,-18142846.1157
2.7333333333333334,-16644366.1557
2.7666666666666666,-15269510.7924
2.8,-15408120.1887
2.8333333333333335,-18045444.9183
2.8666666666666667,-22136295.2091
2.9,-26751613.4859
2.933333333333333,-31895145.9486
2.966666666666667,-35952280.4403
3.0,-38421026.1744
3.033333333333333,-40620045.5157
3.066666666666667,-41399255.0949
3.1,-41290615.297800004
3.1333333333333333,-40709954.3133
3.1666666666666665,-39155281.3548
3.2,-36723997.6197
3.2333333333333334,-34599902.2764
3.2666666666666666,-31977562.3464
3.3,-29707365.207000002
3.3333333333333335,-28864470.2295
3.3666666666666667,-28002844.2525
3.4,-27133725.8757
3.433333333333333,-26714151.4869
3.466666666666667,-25691438.9142
3.5,-24256644.3525
3.533333333333333,-22563361.997700002
3.566666666666667,-20682769.6479
3.6,-18476257.9068
3.6333333333333333,-17281220.1387
3.6666666666666665,-15434343.588
3.7,-13624929.0363
3.7333333333333334,-12141433.8759
3.7666666666666666,-10406943.3222
3.8,-8219162.5806
3.8333333333333335,-7398744.8025
3.8666666666666667,-6900500.2158
3.9,-7904481.789
3.933333333333333,-11246092.0998
3.966666666666667,-16149867.7689
4.0,-23020398.3855
4.033333333333333,-29505070.4124
4.066666666666666,-34779719.8716
4.1,-38061390.984
4.133333333333334,-39627302.5422
4.166666666666667,-41028381.304800004
4.2,-42066078.6771
4.233333333333333,-42819064.857
4.266666666666667,-43085045.0499
4.3,-43785584.4312
4.333333333333333,-44444915.6136
4.366666666666666,-45550044.5841
4.4,-46673904.5541
4.433333333333334,-47696617.1268
4.466666666666667,-47955104.9199
4.5,-48067490.9169
4.533333333333333,-47756556.3252
4.566666666666666,-47456860.3332
4.6,-47198372.5401
4.633333333333334,-46467863.5596
4.666666666666667,-45905933.5746
4.7,-45433912.3872
4.733333333333333,-44969383.5996
4.766666666666667,-44797058.4042
4.8,-44077788.0234
4.833333333333333,-43729391.4327
4.866666666666666,-43474649.8395
4.9,-44197666.4202
4.933333333333334,-48779268.8979
4.966666666666667,-63681652.1001
5.0,-82727332.3917
5.033333333333333,-95123507.8608
5.066666666666666,-104638855.6068
5.1,-111704188.6182
5.133333333333334,-116488085.89050001
5.166666666666667,-119406375.6126
5.2,-121436815.9584
5.233333333333333,-122553183.5286
5.266666666666667,-122751732.1233
5.3,-115270570.92300001
5.333333333333333,-110142023.2599
5.366666666666666,-105792685.176
5.4,-103503757.0371
5.433333333333334,-102203825.6718
5.466666666666667,-93299108.5095
5.5,-73807630.4298
5.533333333333333,-43965402.0264
5.566666666666666,-20233225.659900002
5.6,-5769147.846
5.633333333333334,6102559.6371
5.666666666666667,18296440.3116
5.7,21862822.6164
5.733333333333333,21439502.0277
5.766666666666667,19247975.0862
5.8,16502010.5595
5.833333333333333,14992291.9998
5.866666666666666,13636167.636
5.9,12774541.659
5.933333333333334,12549769.665000001
5.966666666666667,12628439.8629
6.0,13006806.0528
6.033333333333333,13426380.4416
6.066666666666666,13257801.4461
6.1,12916897.2552
6.133333333333334,12860704.2567
6.166666666666667,11560772.8914
6.2,8679945.168300001
6.233333333333333,5383289.2563000005
6.266666666666667,988996.7736000001
6.3,-3011944.7196
6.333333333333333,-6731921.2203
6.366666666666666,-10451897.721
6.4,-13947102.2277
6.433333333333334,-16516995.359100001
6.466666666666667,-19660057.0752
6.5,-23140276.7823
6.533333333333333,-25822555.9107
6.566666666666666,-28272570.6453
6.6,-30332980.5903
6.633333333333334,-31872668.7492
6.666666666666667,-33191331.114
6.7,-34858390.0695
6.733333333333333,-35866117.8426
6.766666666666667,-37117348.6092
6.8,-38582112.7701
6.833333333333333,-39436246.3473
6.866666666666666,-38226223.7796
6.9,-35768716.6452
6.933333333333334,-33903109.095
6.966666666666667,-31557987.9576
7.0,-29591233.0101
7.033333333333333,-27485868.6663
7.066666666666666,-25313072.7243
7.1,-23076591.384
7.133333333333334,-21327116.030700002
7.166666666666667,-21855330.2166
7.2,-22181249.6079
7.233333333333333,-23780876.9652
7.266666666666667,-26819045.0841
7.3,-29759812.0056
7.333333333333333,-32636893.5288
7.366666666666666,-35364127.056
7.4,-38312386.3773
7.433333333333334,-40440227.9205
7.466666666666667,-48254800.9119
7.5,-52791448.9908
7.533333333333333,-56148044.1012
7.566666666666666,-57867549.8553
7.6,-59212435.6194
7.633333333333334,-60276356.391
7.666666666666667,-61149220.967700005
7.7,-61666196.5539
7.733333333333333,-61531333.3575
7.766666666666667,-61654957.9542
7.8,-61460155.5594
7.833333333333333,-61501363.7583
7.866666666666666,-61179190.5669
7.9,-61089281.7693
7.933333333333334,-60898225.5744
7.966666666666667,-60613514.382
8.0,-60197686.1931
8.033333333333333,-59613279.0087
8.066666666666666,-59395999.4145
8.1,-58912739.6274
8.133333333333333,-58496911.4385
8.166666666666666,-58077337.0497
8.2,-57234442.0722
8.233333333333333,-56342846.496
8.266666666666667,-55410042.7209
8.3,-54900559.5345
8.333333333333334,-54657056.541
8.366666666666667,-55859586.708900005
8.4,-58253408.445
8.433333333333334,-61280337.9642
8.466666666666667,-63902677.894200005
8.5,-66210337.0326
8.533333333333333,-68847661.7622
8.566666666666666,-70417319.5203
8.6,-72095617.0755
8.633333333333333,-73065882.8496
8.666666666666666,-74414514.8136
8.7,-75302364.1899
8.733333333333333,-76220183.1654
8.766666666666667,-76916976.3468
8.8,-77546337.93
8.833333333333334,-78029597.7171
8.866666666666667,-78186938.1129
8.9,-78572796.7026
8.933333333333334,-78643974.5007
8.966666666666667,-78823792.0959
9.0,-78786330.0969
9.033333333333333,-78846269.2953
9.066666666666666,-78805061.09640001
9.1,-78831284.4957
9.133333333333333,-78842523.0954
9.166666666666666,-78580289.1024
9.2,-78565304.3028
9.233333333333333,-78179445.7131
9.266666666666667,-77969658.5187
9.3,-77430205.7331
9.333333333333334,-76916976.3468
9.366666666666667,-76343807.7621
9.4,-75815593.57620001
9.433333333333334,-75448465.986
9.466666666666667,-74972698.5987
9.5,-75515897.5842
9.533333333333333,-77096793.942
9.566666666666666,-79224635.4852
9.6,-81393685.2273
9.633333333333333,-83648897.5671
9.666666666666666,-85387134.3207
9.7,-87166579.2732
9.733333333333333,-88384094.2407
9.766666666666667,-89219496.8184
9.8,-90129823.3941
9.833333333333334,-90841601.3751
9.866666666666667,-91587095.1552
9.9,-92089085.9418
9.933333333333334,-92501167.9308
9.966666666666667,-92928234.7194
