Time (s),PPGG
0.0,61411009.323199995
0.03333333333333333,61523464.54
0.06666666666666667,61560077.866399996
0.1,61714376.8848
0.13333333333333333,62007283.496
0.16666666666666666,62274037.731199995
0.2,62556483.392
0.23333333333333334,62812776.6768
0.26666666666666666,63173679.4656
0.3,63500584.1656
0.3333333333333333,63777799.3512
0.36666666666666664,64007940.26
0.4,64300846.871199995
0.43333333333333335,64546679.2056
0.4666666666666667,64810818.2032
0.5,64614675.3832
0.5333333333333333,63267828.0192
0.5666666666666667,62056973.0104
0.6,61021338.9208
0.6333333333333333,60181847.6512
0.6666666666666666,59384200.1832
0.7,58636242.2296
0.7333333333333333,58094888.046399996
0.7666666666666667,57781059.5344
0.8,57543072.9128
0.8333333333333334,57333853.9048
0.8666666666666667,57271088.2024
0.9,56936337.7896
0.9333333333333333,56852650.1864
0.9666666666666667,56774193.0584
1.0,56787269.2464
1.0333333333333334,57025255.868
1.0666666666666667,57161248.2232
1.1,57378312.944
1.1333333333333333,57699987.1688
1.1666666666666667,58039968.0568
1.2,58356411.8064
1.2333333333333334,58683316.5064
1.2666666666666666,58923918.3656
1.3,59242977.3528
1.3333333333333333,59645723.9432
1.3666666666666667,59993550.544
1.4,60312609.5312
1.4333333333333333,60602900.9048
1.4666666666666666,61003032.2576
1.5,61319476.007199995
1.5333333333333334,61949748.2688
1.5666666666666667,61960209.2192
1.6,61063182.722399995
1.6333333333333333,59494040.1624
1.6666666666666667,57883053.800799996
1.7,56580665.475999996
1.7333333333333334,55333197.1408
1.7666666666666666,54457092.5448
1.8,53981119.3016
1.8333333333333333,53832050.7584
1.8666666666666667,53855587.8968
1.9,54122342.132
1.9333333333333333,54634928.7016
1.9666666666666666,55259970.488
2.0,55971315.1152
2.033333333333333,56426366.4576
2.066666666666667,56991257.779199995
2.1,57543072.9128
2.1333333333333333,58003354.730399996
2.1666666666666665,58406101.3208
2.2,58651933.6552
2.2333333333333334,58848076.4752
2.2666666666666666,59028527.8696
2.3,59271744.9664
2.3333333333333335,59352817.331999995
2.3666666666666667,59669261.081599995
2.4,59928169.603999995
2.433333333333333,60111236.236
2.466666666666667,60192308.6016
2.5,60234152.4032
2.533333333333333,60568902.816
2.566666666666667,60649975.1816
2.6,60887961.8032
2.6333333333333333,61157331.276
2.6666666666666665,61340397.908
2.7,60840887.5264
2.7333333333333334,59745102.971999995
2.7666666666666666,58481943.2112
2.8,57524766.2496
2.8333333333333335,56808191.147199996
2.8666666666666667,55824861.809599996
2.9,55092595.2816
2.933333333333333,54506782.0592
2.966666666666667,54203414.4976
3.0,53837281.2336
3.033333333333333,53403151.791999996
3.066666666666667,52987329.0136
3.1,52529662.4336
3.1333333333333333,52440744.3552
3.1666666666666665,52317828.188
3.2,52317828.188
3.2333333333333334,52294291.0496
3.2666666666666666,52406746.2664
3.3,52534892.9088
3.3333333333333335,52715344.3032
3.3666666666666667,52874873.796799995
3.4,53183471.8336
3.433333333333333,53481608.92
3.466666666666667,53941890.7376
3.5,54423094.456
3.533333333333333,54851993.4224
3.566666666666667,55178898.1224
3.6,55437806.6448
3.6333333333333333,55832707.5224
3.6666666666666665,56198840.7864
3.7,56507438.823199995
3.7333333333333334,56933722.552
3.7666666666666666,57244935.8264
3.8,57537842.4376
3.8333333333333335,57511690.0616
3.8666666666666667,56818652.0976
3.9,55131823.8456
3.933333333333333,53217469.9224
3.966666666666667,51015439.8632
4.0,48491735.5792
4.033333333333333,46226939.8176
4.066666666666666,44343968.7456
4.1,42918664.2536
4.133333333333334,41859493.0256
4.166666666666667,41140302.6856
4.2,40402805.682399996
4.233333333333333,39924217.2016
4.266666666666667,39511009.6608
4.3,39029805.9424
4.333333333333333,38650596.4904
4.366666666666666,38002017.5656
4.4,37531274.7976
4.433333333333334,36744088.28
4.466666666666667,36071972.2168
4.5,35031107.652
4.533333333333333,33741795.5152
4.566666666666666,32494327.18
4.6,30901647.481599998
4.633333333333334,29183436.378399998
4.666666666666667,25760090.36
4.7,21063123.6304
4.733333333333333,11915022.5056
4.766666666666667,1480224.4816
4.8,-22849330.911199998
4.833333333333333,-38004632.8032
4.866666666666666,-43512323.1888
4.9,-57679065.268
4.933333333333334,-64300846.871199995
4.966666666666667,-75384223.82
5.0,-82042618.7496
5.033333333333333,-83253473.7584
5.066666666666666,-84223726.90799999
5.1,-84563707.796
5.133333333333334,-85693490.4392
5.166666666666667,-84825231.556
5.2,-83847132.6936
5.233333333333333,-82447980.5776
5.266666666666667,-78454512.7624
5.3,-74659803.00479999
5.333333333333333,-70342045.7272
5.366666666666666,-65192642.892799996
5.4,-61023954.1584
5.433333333333334,-59624802.042399995
5.466666666666667,-58806232.673599996
5.5,-58518556.537599996
5.533333333333333,-57770598.584
5.566666666666666,-56285143.6272
5.6,-54721231.542399995
5.633333333333334,-53371768.940799996
5.666666666666667,-52388439.603199996
5.7,-51347575.0384
5.733333333333333,-50900369.4088
5.766666666666667,-50325017.1368
5.8,-49783662.9536
5.833333333333333,-48525733.668
5.866666666666666,-47369798.6488
5.9,-46504155.0032
5.933333333333334,-46237400.768
5.966666666666667,-45968031.2952
6.0,-45622819.932
6.033333333333333,-45280223.8064
6.066666666666666,-45473751.388799995
6.1,-46145867.452
6.133333333333334,-46334164.5592
6.166666666666667,-46729065.436799996
6.2,-48711415.537599996
6.233333333333333,-51067744.6152
6.266666666666667,-53175626.120799996
6.3,-54600930.6128
6.333333333333333,-55550261.8616
6.366666666666666,-56196225.5488
6.4,-56996488.2544
6.433333333333334,-57101097.7584
6.466666666666667,-56253760.776
6.5,-54687233.4536
6.533333333333333,-52686576.6896
6.566666666666666,-51713708.3024
6.6,-50704226.5888
6.633333333333334,-50173333.356
6.666666666666667,-49718282.0136
6.7,-49498602.055199996
6.733333333333333,-48810794.5664
6.766666666666667,-48120371.839999996
6.8,-47508406.2416
6.833333333333333,-47900691.8816
6.866666666666666,-48287747.046399996
6.9,-48447276.54
6.933333333333334,-48847407.892799996
6.966666666666667,-48844792.6552
7.0,-48609421.2712
7.033333333333333,-48015762.335999995
7.066666666666666,-47649629.072
7.1,-47443025.3016
7.133333333333334,-46961821.5832
7.166666666666667,-46687221.6352
7.2,-46420467.4
7.233333333333333,-45988953.196
7.266666666666667,-45507749.4776
7.3,-43004967.094399996
7.333333333333333,-42034713.9448
7.366666666666666,-42552530.989599995
7.4,-43460018.436799996
7.433333333333334,-43975220.243999995
7.466666666666667,-44142595.4504
7.5,-44247204.954399996
7.533333333333333,-44383197.309599996
7.566666666666666,-44142595.4504
7.6,-43818305.988
7.633333333333334,-43588165.0792
7.666666666666667,-43392022.2592
7.7,-43054656.6088
7.733333333333333,-42816669.9872
7.766666666666667,-42377310.0704
7.8,-41917028.252799995
7.833333333333333,-41825494.936799996
7.866666666666666,-41265834.090399995
7.9,-40907546.5392
7.933333333333334,-40392344.732
7.966666666666667,-40104668.596
8.0,-39856221.024
8.033333333333333,-39377632.5432
8.066666666666666,-38977501.1904
8.1,-38297539.4144
8.133333333333333,-37879101.3984
8.166666666666666,-37152065.3456
8.2,-36574097.835999995
8.233333333333333,-36173966.4832
8.266666666666667,-36228886.4728
8.3,-36459027.3816
8.333333333333334,-36534869.272
8.366666666666667,-36537484.5096
8.4,-36725781.616799995
8.433333333333334,-37560042.4112
8.466666666666667,-39176259.247999996
8.5,-40899700.8264
8.533333333333333,-41519512.1376
8.566666666666666,-41558740.7016
8.6,-41208298.8632
8.633333333333333,-41244912.1896
8.666666666666666,-41543049.276
8.7,-41009540.8056
8.733333333333333,-40711403.7192
8.766666666666667,-40413266.6328
8.8,-40102053.3584
8.833333333333334,-39610388.6896
8.866666666666667,-39299175.4152
8.9,-38705516.48
8.933333333333334,-38211236.5736
8.966666666666667,-37983710.9024
9.0,-37029149.1784
9.033333333333333,-36587174.024
9.066666666666666,-35716299.9032
9.1,-34855886.7328
9.133333333333333,-34515905.844799995
9.166666666666666,-34484522.993599996
9.2,-33883018.3456
9.233333333333333,-32564938.5952
9.266666666666667,-31816980.641599998
9.3,-31186708.38
9.333333333333334,-30425674.238399997
9.366666666666667,-29881704.8176
9.4,-29939240.0448
9.433333333333334,-30064771.4496
9.466666666666667,-30569512.306399997
9.5,-31529304.505599998
9.533333333333333,-31505767.3672
9.566666666666666,-31186708.38
9.6,-30464902.8024
9.633333333333333,-28945449.7568
9.666666666666666,-20116407.6192
9.7,1624062.5496
9.733333333333333,30109230.4888
9.766666666666667,37269751.037599996
9.8,36762394.9432
9.833333333333334,31913744.4328
9.866666666666667,33922246.9096
9.9,64478683.028
9.933333333333334,72410698.6688
9.966666666666667,85693490.4392
