Time (s),PPGG
0.0,1176699934.2851999
0.03333333333333333,1199787155.9424
0.06666666666666667,1204539306.9155998
0.1,1214904234.6288
0.13333333333333333,1220591848.392
0.16666666666666666,1226092369.5972
0.2,1175203193.8212
0.23333333333333334,1114248438.4248
0.26666666666666666,1051722105.5411999
0.3,999223933.7664
0.3333333333333333,951739842.546
0.36666666666666664,889774787.3363999
0.4,842590044.2088
0.43333333333333335,791700868.4327999
0.4666666666666667,742682618.2368
0.5,691793442.4607999
0.5333333333333333,661821214.6692
0.5666666666666667,625637513.952
0.6,583953292.0296
0.6333333333333333,564495665.9976
0.6666666666666666,530145472.34879994
0.7,511548472.0836
0.7333333333333333,482212358.9892
0.7666666666666667,458227093.05359995
0.8,432819923.67719996
0.8333333333333334,418451215.22279996
0.8666666666666667,407113406.208
0.9,400901933.28239995
0.9333333333333333,396598804.44839996
0.9666666666666667,382267514.5056
1.0,391509886.87079996
1.0333333333333334,401799977.56079996
1.0666666666666667,427020054.3792
1.1,452876245.89479995
1.1333333333333333,500472592.65
1.1666666666666667,597349119.1824
1.2,614973238.1459999
1.2333333333333334,624702051.162
1.2666666666666666,605019914.0604
1.3,583841036.4948
1.3333333333333333,560753814.8376
1.3666666666666667,522998536.6332
1.4,491941172.00519997
1.4333333333333333,464214054.90959996
1.4666666666666666,441501018.3684
1.5,395663341.6584
1.5333333333333334,372800631.0708
1.5666666666666667,346607672.9508
1.6,323857217.898
1.6333333333333333,302266736.7048
1.6666666666666667,289394768.7144
1.7,272107416.3552
1.7333333333333334,256054874.87879997
1.7666666666666666,271882905.2856
1.8,275325408.3528
1.8333333333333333,288197376.34319997
1.8666666666666667,287561261.64599997
1.9,315438052.788
1.9333333333333333,325690724.96639997
1.9666666666666666,343838703.09239995
2.0,376317971.1612
2.033333333333333,442810666.2744
2.066666666666667,510837520.36319995
2.1,540435563.0388
2.1333333333333333,582157203.4728
2.1666666666666665,661783796.1575999
2.2,674169323.4972
2.2333333333333334,694599830.8307999
2.2666666666666666,702607392.3132
2.3,678247941.2616
2.3333333333333335,624028517.9532
2.3666666666666667,555178456.6092
2.4,467993324.5812
2.433333333333333,413287460.622
2.466666666666667,357720970.89599997
2.5,310236879.6756
2.533333333333333,247448617.2108
2.566666666666667,190497642.5556
2.6,136278219.24719998
2.6333333333333333,74163489.9912
2.6666666666666665,24097521.470399998
2.7,-25107821.2836
2.7333333333333334,-69411339.01799999
2.7666666666666666,-118654100.28359999
2.8,-149299861.28399998
2.8333333333333335,-177962441.16959998
2.8666666666666667,-210030105.6108
2.9,-226194902.62199998
2.933333333333333,-232705723.6404
2.966666666666667,-224548488.11159998
3.0,-225259439.832
3.033333333333333,-220507288.8588
3.066666666666667,-209655920.4948
3.1,-199665177.8976
3.1333333333333333,-188065439.30159998
3.1666666666666665,-162284084.8092
3.2,-162733106.9484
3.2333333333333334,-170029716.7104
3.2666666666666666,-153341060.5368
3.3,-151507553.4684
3.3333333333333335,-170067135.222
3.3666666666666667,-223051747.6476
3.4,-290105720.43479997
3.433333333333333,-351397242.4356
3.466666666666667,-414073249.3656
3.5,-472708057.04279995
3.533333333333333,-532203490.48679996
3.566666666666667,-568649120.7852
3.6,-611455898.0555999
3.6333333333333333,-623991099.4416
3.6666666666666665,-650296313.0964
3.7,-668930731.8731999
3.7333333333333334,-689136728.1372
3.7666666666666666,-704328643.8468
3.8,-714768408.5832
3.8333333333333335,-730409346.4319999
3.8666666666666667,-727602958.0619999
3.9,-723861106.902
3.933333333333333,-722027599.8335999
3.966666666666667,-719595396.5796
4.0,-711101394.4463999
4.033333333333333,-700586792.6868
4.066666666666666,-680829818.5619999
4.1,-656096182.3944
4.133333333333334,-658266456.0672
4.166666666666667,-610033994.6148
4.2,-610819783.3584
4.233333333333333,-592821479.2788
4.266666666666667,-584701662.2616
4.3,-565805313.9036
4.333333333333333,-564158899.3931999
4.366666666666666,-564907269.6251999
4.4,-575945730.5472
4.433333333333334,-624702051.162
4.466666666666667,-671737120.2432
4.5,-742757455.26
4.533333333333333,-796976878.5683999
4.566666666666666,-847828635.8327999
4.6,-880756926.0408
4.633333333333334,-920757314.9411999
4.666666666666667,-952600468.3127999
4.7,-969738146.6256
4.733333333333333,-984106855.0799999
4.766666666666667,-988185472.8443999
4.8,-1000234233.5796
4.833333333333333,-999934885.4868
4.866666666666666,-999710374.4172
4.9,-986875824.9383999
4.933333333333334,-982722370.1508
4.966666666666667,-971122631.5547999
5.0,-960346100.214
5.033333333333333,-955781041.7988
5.066666666666666,-950542450.1747999
5.1,-952600468.3127999
5.133333333333334,-954621067.9391999
5.166666666666667,-926632021.2623999
5.2,-915369049.2708
5.233333333333333,-891159272.2656
5.266666666666667,-888951580.0812
5.3,-874657708.65
5.333333333333333,-853591086.6192
5.366666666666666,-818305430.1804
5.4,-787360321.0871999
5.433333333333334,-761766059.1528
5.466666666666667,-763300218.1284
5.5,-770746501.9368
5.533333333333333,-808988220.7919999
5.566666666666666,-861972833.2176
5.6,-890111553.9408
5.633333333333334,-924237236.52
5.666666666666667,-941262659.298
5.7,-961842840.678
5.733333333333333,-965734365.8843999
5.766666666666667,-979167611.5488
5.8,-984630714.2423999
5.833333333333333,-984106855.0799999
5.866666666666666,-991291209.3072
5.9,-990393165.0287999
5.933333333333334,-994396945.77
5.966666666666667,-994471782.7931999
6.0,-989757050.3316
6.033333333333333,-982011418.4303999
6.066666666666666,-968353661.6963999
6.1,-957352619.2859999
6.133333333333334,-926781695.3088
6.166666666666667,-856098126.8964
6.2,-844236458.7191999
6.233333333333333,-830316772.4039999
6.266666666666667,-805208951.1204
6.3,-791027335.224
6.333333333333333,-764086006.872
6.366666666666666,-729548720.6652
6.4,-702420299.7551999
6.433333333333334,-674019649.4508
6.466666666666667,-666535947.1308
6.5,-664702440.0624
6.533333333333333,-701372581.4304
6.566666666666666,-732280272.012
6.6,-771158105.5644
6.633333333333334,-811345587.0228
6.666666666666667,-842702299.7436
6.7,-873123549.6744
6.733333333333333,-909943365.0888
6.766666666666667,-951889516.5924
6.8,-981562396.2911999
6.833333333333333,-1008241795.0619999
6.866666666666666,-1026053006.5835999
6.9,-1051684687.0295999
6.933333333333334,-1062685729.4399999
6.966666666666667,-1065417280.7867999
7.0,-1064481817.9968
7.033333333333333,-1058120671.0248
7.066666666666666,-1057297463.7695999
7.1,-1046221584.336
7.133333333333334,-1048354439.4971999
7.166666666666667,-1011048183.4319999
7.2,-1010486905.7579999
7.233333333333333,-998288470.9763999
7.266666666666667,-980701770.5244
7.3,-957015852.6816
7.333333333333333,-915069701.178
7.366666666666666,-888652231.9884
7.4,-861785740.6595999
7.433333333333334,-848277657.972
7.466666666666667,-825115599.2916
7.5,-808988220.7919999
7.533333333333333,-793945979.1287999
7.566666666666666,-792224727.5952
7.6,-815611297.3452
7.633333333333334,-842926810.8132
7.666666666666667,-877426678.5084
7.7,-912001383.2268
7.733333333333333,-954695904.9624
7.766666666666667,-987287428.566
7.8,-1012582342.4075999
7.833333333333333,-1037315978.5752
7.866666666666666,-1038850137.5508
7.9,-1033087686.7643999
7.933333333333334,-1035968912.1575999
7.966666666666667,-1037428234.1099999
8.0,-1034958612.3443999
8.033333333333333,-1038812719.0392
8.066666666666666,-1040272040.9915999
8.1,-1033050268.2528
8.133333333333333,-1027175561.9316
8.166666666666666,-993536320.0031999
8.2,-990729931.6331999
8.233333333333333,-989495120.7504
8.266666666666667,-997540100.7443999
8.3,-986351965.7759999
8.333333333333334,-968465917.2312
8.366666666666667,-943245840.4128
8.4,-934751838.2795999
8.433333333333334,-922628240.5212
8.466666666666667,-901224851.8859999
8.5,-890186390.964
8.533333333333333,-869232024.4679999
8.566666666666666,-867510772.9344
8.6,-848165402.4372
8.633333333333333,-841055885.2332
8.666666666666666,-820849888.9692
8.7,-821261492.5968
8.733333333333333,-837875311.7472
8.766666666666667,-875031893.7659999
8.8,-922066962.8471999
8.833333333333334,-951814679.5691999
8.866666666666667,-988971261.5879999
8.9,-1021712459.2379999
8.933333333333334,-1059579992.9771999
8.966666666666667,-1086932924.9568
9.0,-1118252219.166
9.033333333333333,-1145380640.076
9.066666666666666,-1167494980.4315999
9.1,-1201957429.6152
9.133333333333333,-1213781679.2807999
9.166666666666666,-1225493673.4115999
9.2,-1221864077.7863998
9.233333333333333,-1226092369.5972
9.266666666666667,-1220816359.4615998
9.3,-1213108146.072
9.333333333333334,-1203341914.5444
9.366666666666667,-1190170598.4612
9.4,-1182200455.4903998
9.433333333333334,-1164838266.108
9.466666666666667,-1148823143.1432
9.5,-1124351436.5568
9.533333333333333,-1092508283.1852
9.566666666666666,-1074135793.9896
9.6,-1054902679.0272
9.633333333333333,-1036380515.7852
9.666666666666666,-1013368131.1511999
9.7,-995332408.56
9.733333333333333,-961356400.0272
9.766666666666667,-950392776.1284
9.8,-951926935.104
9.833333333333334,-978456659.8283999
9.866666666666667,-998550400.5575999
9.9,-1018307374.6824
9.933333333333334,-1037727582.2027999
9.966666666666667,-1053967216.2371999
