Time (s),PPGG
0.0,-754195567.4
0.03333333333333333,-688414216.8000001
0.06666666666666667,-601225938.8000001
0.1,-534766080.20000005
0.13333333333333333,-436755599.6
0.16666666666666666,-401032153.40000004
0.2,-440114214.20000005
0.23333333333333334,-554374961.4
0.26666666666666666,-688007112.0
0.3,-767799652.8000001
0.3333333333333333,-864894147.6
0.36666666666666664,-922703029.2
0.4,-991673367.4000001
0.43333333333333335,-1035301431.8000001
0.4666666666666667,-1067462711.0
0.5,-1086155606.4
0.5333333333333333,-1082288110.8
0.5666666666666667,-1103389709.6000001
0.6,-1111633581.8
0.6333333333333333,-1108410668.8
0.6666666666666666,-1070041041.4000001
0.7,-1041000899.0
0.7333333333333333,-1012300010.6
0.7666666666666667,-966941750.8000001
0.8,-905570702.2
0.8333333333333334,-833784555.8000001
0.8666666666666667,-777095212.4
0.9,-688448142.2
0.9333333333333333,-634371054.6
0.9666666666666667,-553798229.6
1.0,-495548317.8
1.0333333333333334,-435466434.40000004
1.0666666666666667,-347396096.0
1.1,-274999292.40000004
1.1333333333333333,-167625401.4
1.1666666666666667,-94278686.60000001
1.2,-6310124.4
1.2333333333333334,-6547602.2
1.2666666666666666,-82913677.60000001
1.3,-188048492.20000002
1.3333333333333333,-258172294.0
1.3666666666666667,-307737303.40000004
1.4,-368735172.6
1.4333333333333333,-408054711.2
1.4666666666666666,-462912083.0
1.5,-484217234.20000005
1.5333333333333334,-499619365.8
1.5666666666666667,-510373717.6
1.6,-520347785.20000005
1.6333333333333333,-517701604.0
1.6666666666666667,-512816346.40000004
1.7,-491375493.6
1.7333333333333334,-458467855.6
1.7666666666666666,-428715279.8
1.8,-384408707.40000004
1.8333333333333333,-347124692.8
1.8666666666666667,-314658085.0
1.9,-257425935.20000002
1.9333333333333333,-175971049.8
1.9666666666666666,-120672647.80000001
2.0,-60149734.2
2.033333333333333,50379219.0
2.066666666666667,124133038.60000001
2.1,225569984.60000002
2.1333333333333333,306414212.8
2.1666666666666665,386376380.6
2.2,465490413.40000004
2.2333333333333334,490154179.20000005
2.2666666666666666,449918654.8
2.3,364799826.2
2.3333333333333335,302614568.0
2.3666666666666667,203450623.8
2.4,161858083.4
2.433333333333333,102895738.2
2.466666666666667,60794316.800000004
2.5,26495737.400000002
2.533333333333333,-8447424.6
2.566666666666667,-26834991.400000002
2.6,-62320959.800000004
2.6333333333333333,-73753819.60000001
2.6666666666666665,-85220604.8
2.7,-80199645.60000001
2.7333333333333334,-75348313.4
2.7666666666666666,-51668384.2
2.8,-29243694.8
2.8333333333333335,7090408.600000001
2.8666666666666667,59064121.400000006
2.9,71175489.2
2.933333333333333,120333393.80000001
2.966666666666667,163825756.6
3.0,221872116.0
3.033333333333333,279918475.40000004
3.066666666666667,337863058.6
3.1,392686505.0
3.1333333333333333,445169098.8
3.1666666666666665,505217056.8
3.2,554001782.0
3.2333333333333334,608689526.8000001
3.2666666666666666,573915991.8000001
3.3,481876381.6
3.3333333333333335,343969630.6
3.3666666666666667,227435881.60000002
3.4,145913145.4
3.433333333333333,44408348.6
3.466666666666667,-30227531.400000002
3.5,-115889166.4
3.533333333333333,-163893607.4
3.566666666666667,-202636414.20000002
3.6,-239615100.20000002
3.6333333333333333,-279816699.2
3.6666666666666665,-302546717.2
3.7,-316965012.2
3.7333333333333334,-320391477.6
3.7666666666666666,-293793964.0
3.8,-274252933.6
3.8333333333333335,-235544052.20000002
3.8666666666666667,-263023626.20000002
3.9,-338711193.6
3.933333333333333,-455244942.6
3.966666666666667,-594305157.2
4.0,-692349563.2
4.033333333333333,-768851340.2
4.066666666666666,-756468569.2
4.1,-734213506.8000001
4.133333333333334,-644887928.6
4.166666666666667,-549761107.0
4.2,-391770519.2
4.233333333333333,-245653821.4
4.266666666666667,-112971582.0
4.3,-58555240.400000006
4.333333333333333,-92514565.8
4.366666666666666,-124879397.4
4.4,-180245650.20000002
4.433333333333334,-216749380.60000002
4.466666666666667,-275915278.2
4.5,-308381886.0
4.533333333333333,-329720962.6
4.566666666666666,-354452579.2
4.6,-359066433.6
4.633333333333334,-381966078.6
4.666666666666667,-377962881.40000004
4.7,-389701069.8
4.733333333333333,-372941922.2
4.766666666666667,-362933929.2
4.8,-326362348.0
4.833333333333333,-310587037.0
4.866666666666666,-281173715.2
4.9,-230658794.60000002
4.933333333333334,-196326289.8
4.966666666666667,-146014921.6
5.0,-99978153.8
5.033333333333333,-36164476.4
5.066666666666666,24528064.2
5.1,87595382.8
5.133333333333334,145098935.8
5.166666666666667,220311547.60000002
5.2,302309239.40000004
5.233333333333333,354622206.2
5.266666666666667,422201603.0
5.3,411141922.6
5.333333333333333,341357374.8
5.366666666666666,221431085.8
5.4,104490232.0
5.433333333333334,-7667140.4
5.466666666666667,-82777976.0
5.5,-150764477.6
5.533333333333333,-242566610.0
5.566666666666666,-260648848.20000002
5.6,-302580642.6
5.633333333333334,-322155598.40000004
5.666666666666667,-342103733.6
5.7,-352654533.0
5.733333333333333,-347599648.40000004
5.766666666666667,-333859861.40000004
5.8,-307635527.2
5.833333333333333,-295184905.40000004
5.866666666666666,-252846006.20000002
5.9,-213492542.20000002
5.933333333333334,-177735170.6
5.966666666666667,-120774424.0
6.0,-67138366.60000001
6.033333333333333,-16928774.6
6.066666666666666,35994849.4
6.1,114973180.60000001
6.133333333333334,158397692.6
6.166666666666667,225196805.20000002
6.2,289010482.6
6.233333333333333,370770696.6
6.266666666666667,442488992.20000005
6.3,502604801.0
6.333333333333333,496769632.20000005
6.366666666666666,408529666.8
6.4,295761637.2
6.433333333333334,156294317.8
6.466666666666667,77044583.4
6.5,-21746181.400000002
6.533333333333333,-105847248.0
6.566666666666666,-160026111.8
6.6,-180788456.6
6.633333333333334,-187166431.8
6.666666666666667,-198667142.4
6.7,-197785082.0
6.733333333333333,-204468385.8
6.766666666666667,-184316698.20000002
6.8,-175021138.6
6.833333333333333,-154665898.6
6.866666666666666,-114566075.80000001
6.9,-71955773.4
6.933333333333334,-22492540.2
6.966666666666667,21271225.8
7.0,79962167.8
7.033333333333333,119315631.80000001
7.066666666666666,179770694.6
7.1,245416343.60000002
7.133333333333334,323987570.0
7.166666666666667,392109773.2
7.2,458942811.20000005
7.233333333333333,538837128.2
7.266666666666667,594135530.2
7.3,683121854.4
7.333333333333333,738996988.2
7.366666666666666,724001961.4
7.4,624091658.4
7.433333333333334,535478513.6
7.466666666666667,454057553.6
7.5,399335883.40000004
7.533333333333333,371550980.8
7.566666666666666,343562525.8
7.6,342680465.40000004
7.633333333333334,317914923.40000004
7.666666666666667,313945651.6
7.7,316897161.40000004
7.733333333333333,330195918.2
7.766666666666667,365173005.6
7.8,385460394.8
7.833333333333333,420810661.6
7.866666666666666,447577802.20000005
7.9,493885973.20000005
7.933333333333334,525843700.0
7.966666666666667,571269810.6
8.0,607943168.0
8.033333333333333,661341747.6
8.066666666666666,709447964.8000001
8.1,763287574.6
8.133333333333333,810715283.8000001
8.166666666666666,849933046.2
8.2,921787043.4000001
8.233333333333333,999883314.2
8.266666666666667,1075944061.0
8.3,1111633581.8
8.333333333333334,1097995571.0
8.366666666666667,993912443.8000001
8.4,850611554.2
8.433333333333334,731092370.0
8.466666666666667,600309953.0
8.5,498160573.6
8.533333333333333,392923982.8
8.566666666666666,334131264.6
8.6,286330376.0
8.633333333333333,256509949.4
8.666666666666666,227503732.4
8.7,185945117.4
8.733333333333333,173358794.0
8.766666666666667,139670871.8
8.8,136176555.6
8.833333333333334,139399468.6
8.866666666666667,174308705.20000002
8.9,207419895.6
8.933333333333334,238800890.60000002
8.966666666666667,286737480.8
9.0,322698404.8
9.033333333333333,376436238.40000004
9.066666666666666,401507109.0
9.1,452123805.8
9.133333333333333,500162172.20000005
9.166666666666666,575408709.4
9.2,648280468.6
9.233333333333333,707751694.8000001
9.266666666666667,768071056.0
9.3,764237485.8000001
9.333333333333334,686480469.0
9.366666666666667,554103558.2
9.4,425051336.6
9.433333333333334,268519541.0
9.466666666666667,161213500.8
9.5,55501954.400000006
9.533333333333333,-56417940.2
9.566666666666666,-95974956.60000001
9.6,-151884015.8
9.633333333333333,-163723980.4
9.666666666666666,-194799646.8
9.7,-203925579.4
9.733333333333333,-219192009.4
9.766666666666667,-206096805.0
9.8,-176310303.8
9.833333333333334,-138517408.20000002
9.866666666666667,-64560036.2
9.9,-29616874.200000003
9.933333333333334,16589520.600000001
9.966666666666667,47936590.2
