Time (s),PPGG
0.0,-2367262374.4769998
0.03333333333333333,-2428570599.0975
0.06666666666666667,-2482229782.461
0.1,-2556054620.0474997
0.13333333333333333,-2617246950.1035
0.16666666666666666,-2583637526.3985
0.2,-2628372828.2955
0.23333333333333334,-2679250542.111
0.26666666666666666,-2652478897.7114997
0.3,-2577263325.351
0.3333333333333333,-2462527706.496
0.36666666666666664,-2328669484.4985
0.4,-2111019492.3674998
0.43333333333333335,-1949578364.0189998
0.4666666666666667,-1810968464.8769999
0.5,-1654858486.4954998
0.5333333333333333,-1537573187.2215
0.5666666666666667,-1418433574.9155
0.6,-1258267286.7765
0.6333333333333333,-1062521367.336
0.6666666666666666,-848116423.0109999
0.7,-692701812.0165
0.7333333333333333,-427535048.44049996
0.7666666666666667,-208957899.79349998
0.8,48096244.2675
0.8333333333333334,319405419.76199996
0.8666666666666667,645996302.523
0.9,910004120.454
0.9333333333333333,1195104749.1239998
0.9666666666666667,1409162009.7554998
1.0,1440685331.2995
1.0333333333333334,1381694997.9689999
1.0666666666666667,1232422798.893
1.1,999474724.2479999
1.1333333333333333,841510432.8345
1.1666666666666667,873033754.3785
1.2,768033278.9415
1.2333333333333334,586426496.37
1.2666666666666666,461028577.581
1.3,336094237.04999995
1.3333333333333333,310945116.5535
1.3666666666666667,209189688.92249998
1.4,144636416.496
1.4333333333333333,163295441.3805
1.4666666666666666,93179229.858
1.5,77533463.6505
1.5333333333333334,40794886.703999996
1.5666666666666667,21904072.6905
1.6,28278273.737999998
1.6333333333333333,86225555.98799999
1.6666666666666667,52500237.718499996
1.7,51920764.896
1.7333333333333334,91324916.82599999
1.7666666666666666,185083619.50649998
1.8,285100628.66999996
1.8333333333333333,270497913.543
1.8666666666666667,389521631.2845
1.9,585847023.5475
1.9333333333333333,801874491.7754999
1.9666666666666666,904325286.7935
2.0,1057190217.369
2.033333333333333,1192786857.8339999
2.066666666666667,1216081665.2984998
2.1,998663462.2965
2.1333333333333333,712635677.1105
2.1666666666666665,528131530.42649996
2.2,157153029.46199998
2.2333333333333334,-81937457.10149999
2.2666666666666666,-291822513.41099995
2.3,-473776979.676
2.3333333333333335,-579125138.8065
2.3666666666666667,-650052612.2804999
2.4,-784142623.407
2.433333333333333,-1038299403.3555
2.466666666666667,-1101346046.4435
2.5,-1161379430.8544998
2.533333333333333,-1249806983.5679998
2.566666666666667,-1345188210.1515
2.6,-1283068723.5795
2.6333333333333333,-1222687655.475
2.6666666666666665,-1238333421.6825
2.7,-1227323438.0549998
2.7333333333333334,-1209707464.251
2.7666666666666666,-1127885901.714
2.8,-1068663779.2544999
2.8333333333333335,-954275844.0929999
2.8666666666666667,-870715863.0884999
2.9,-757950451.8299999
2.933333333333333,-623165073.3165
2.966666666666667,-403544873.589
3.0,-211044001.9545
3.033333333333333,-72202313.68349999
3.066666666666667,154835138.172
3.1,322534573.0035
3.1333333333333333,431127779.94
3.1666666666666665,647155248.168
3.2,378511647.657
3.2333333333333334,112417727.565
3.2666666666666666,-139073477.4
3.3,-380829538.94699997
3.3333333333333335,-915682954.1144999
3.3666666666666667,-1268581903.017
3.4,-1443119117.1539998
3.433333333333333,-1577904495.6675
3.466666666666667,-1706895145.9559999
3.5,-1788137235.6704998
3.533333333333333,-1901018541.4935
3.566666666666667,-1991300407.2389998
3.6,-2030356875.4754999
3.6333333333333333,-2085986266.4355
3.6666666666666665,-2081350483.8555
3.7,-2113569172.7865
3.7333333333333334,-2094330675.0795
3.7666666666666666,-2044264223.2154999
3.8,-1934164386.9404998
3.8333333333333335,-1806564471.4259999
3.8666666666666667,-1697739475.3604999
3.9,-1551132851.268
3.933333333333333,-1405569278.2559998
3.966666666666667,-1240651312.9724998
4.0,-1119889176.7635
4.033333333333333,-924606835.581
4.066666666666666,-832354762.239
4.1,-656774497.0215
4.133333333333334,-514108288.122
4.166666666666667,-163759019.6385
4.2,-290315884.0725
4.233333333333333,-569505889.953
4.266666666666667,-881146373.8935
4.3,-1352721356.8439999
4.333333333333333,-1729262796.9045
4.366666666666666,-2066631874.1639998
4.4,-2336666209.449
4.433333333333334,-2646104696.664
4.466666666666667,-2976056521.7955
4.5,-3109567060.0994997
4.533333333333333,-3205759548.6345
4.566666666666666,-3289899002.4614997
4.6,-3379717289.949
4.633333333333334,-3468956104.614
4.666666666666667,-3556340606.2469997
4.7,-3636655539.4455
4.733333333333333,-3688460409.777
4.766666666666667,-3720910887.837
4.8,-3757997148.4769998
4.833333333333333,-3797517194.9715
4.866666666666666,-3777351540.7485
4.9,-3658096033.878
4.933333333333334,-3528178227.0734997
4.966666666666667,-3373227194.337
5.0,-3231140458.2599998
5.033333333333333,-3015808357.4189997
5.066666666666666,-2911155565.6755
5.1,-2674498864.9665
5.133333333333334,-2468554223.85
5.166666666666667,-1996052084.3834999
5.2,-1884329724.2055
5.233333333333333,-1751166869.5949998
5.266666666666667,-1725206487.1469998
5.3,-1877955523.158
5.333333333333333,-2037426443.9099998
5.366666666666666,-2278718927.199
5.4,-2475044319.462
5.433333333333334,-2700343352.85
5.466666666666667,-2856221542.1025
5.5,-3061586710.3964996
5.533333333333333,-3234849084.324
5.566666666666666,-3378674238.8684998
5.6,-3525164968.3964996
5.633333333333334,-3600960013.5794997
5.666666666666667,-3742119593.1404996
5.7,-3778394591.829
5.733333333333333,-3789752259.1499996
5.766666666666667,-3746639481.1559997
5.8,-3768775342.9754996
5.833333333333333,-3736904337.738
5.866666666666666,-3680347790.2619996
5.9,-3704801543.3715
5.933333333333334,-3673741800.0855
5.966666666666667,-3693907454.3085
6.0,-3665165602.3125
6.033333333333333,-3620662089.5445
6.066666666666666,-3460148117.712
6.1,-3416803550.5889997
6.133333333333334,-3192895251.975
6.166666666666667,-2711353336.4775
6.2,-2650856373.8085
6.233333333333333,-2431236174.081
6.266666666666667,-2235722043.7695
6.3,-2068138503.5024998
6.333333333333333,-2083088902.323
6.366666666666666,-2160622365.9735
6.4,-2227145845.9965
6.433333333333334,-2356831863.672
6.466666666666667,-2482461571.5899997
6.5,-2636949026.0685
6.533333333333333,-2753886641.6489997
6.566666666666666,-2878357403.922
6.6,-2937695420.9459996
6.633333333333334,-2965394221.8615
6.666666666666667,-2994020179.2929997
6.7,-3027745497.5625
6.733333333333333,-3039219059.448
6.766666666666667,-3053821774.575
6.8,-3062513866.9125
6.833333333333333,-3035626327.9484997
6.866666666666666,-3002248693.3725
6.9,-2880791189.7764997
6.933333333333334,-2801751096.7875
6.966666666666667,-2712512282.1225
7.0,-2616203899.023
7.033333333333333,-2457776029.3515
7.066666666666666,-2269795045.7325
7.1,-2181715176.7125
7.133333333333334,-2044380117.78
7.166666666666667,-1784776293.3
7.2,-1839246738.615
7.233333333333333,-1791034599.783
7.266666666666667,-1695305689.5059998
7.3,-1553682531.6869998
7.333333333333333,-1376132058.873
7.366666666666666,-1019176800.2129999
7.4,-743231842.1385
7.433333333333334,-670797739.326
7.466666666666667,-815086472.1285
7.5,-999590618.8125
7.533333333333333,-1168101315.5955
7.566666666666666,-1343102107.9905
7.6,-1516248587.3535
7.633333333333334,-1654394908.2375
7.666666666666667,-1790339232.396
7.7,-1829279806.0679998
7.733333333333333,-1919677566.3779998
7.766666666666667,-1984926206.1915
7.8,-1971946014.9675
7.833333333333333,-1955952565.0665
7.866666666666666,-1906233796.896
7.9,-1808302889.8934999
7.933333333333334,-1709792510.0684998
7.966666666666667,-1610470868.2919998
8.0,-1472208652.8435
8.033333333333333,-1306479425.6085
8.066666666666666,-995766098.1839999
8.1,-726079446.5925
8.133333333333333,-537634884.7155
8.166666666666666,211507580.21249998
8.2,239901748.515
8.233333333333333,429621150.6015
8.266666666666667,641939992.7655
8.3,835715704.6094999
8.333333333333334,1088249960.655
8.366666666666667,1340668322.136
8.4,1773998098.8014998
8.433333333333334,2144628916.0725
8.466666666666667,2534266441.9214997
8.5,2796304052.256
8.533333333333333,2886006445.179
8.566666666666666,2777645027.3715
8.6,2733605092.8615
8.633333333333333,2657462363.9849997
8.666666666666666,2555706936.3539996
8.7,2541915483.1784997
8.733333333333333,2553852623.322
8.766666666666667,2573438804.7225
8.8,2632197348.924
8.833333333333334,2606700544.7339997
8.866666666666667,2598935608.9125
8.9,2617942317.4905
8.933333333333334,2571120913.4325
8.966666666666667,2536468438.647
9.0,2589779938.317
9.033333333333333,2598587925.219
9.066666666666666,2632429138.053
9.1,2725260684.2174997
9.133333333333333,2810790872.8185
9.166666666666666,3070394697.2984996
9.2,2905476732.015
9.233333333333333,2947778248.0575
9.266666666666667,2912662195.014
9.3,2914052929.7879996
9.333333333333334,2922513232.9965
9.366666666666667,2963192225.1359997
9.4,3039219059.448
9.433333333333334,3142017538.1594996
9.466666666666667,3231604036.5179996
9.5,3252349163.5635
9.533333333333333,3340892610.8415
9.566666666666666,3343558185.825
9.6,3241802758.194
9.633333333333333,3096470974.311
9.666666666666666,2953920659.976
9.7,2859350695.344
9.733333333333333,2698141356.1245
9.766666666666667,2652594792.276
9.8,2624548307.667
9.833333333333334,2785062279.4995
9.866666666666667,2940013312.236
9.9,3341008505.4059997
9.933333333333334,3606522952.6755
9.966666666666667,3797517194.9715
