Time (s),PPGG
0.0,256281554.73749998
0.03333333333333333,252652704.17839998
0.06666666666666667,251256992.4249
0.1,249832403.87649998
0.13333333333333333,249168237.59379998
0.16666666666666666,250294432.59489998
0.2,249254867.97849998
0.23333333333333334,249033479.2176
0.26666666666666666,249283744.77339998
0.3,250563949.3473
0.3333333333333333,253143609.69169998
0.36666666666666664,256993849.0117
0.4,266013034.61879998
0.43333333333333335,274647196.2939
0.4666666666666667,282665319.6778
0.5,287901645.153
0.5333333333333333,294071653.6633
0.5666666666666667,297941144.1799
0.6,300222410.977
0.6333333333333333,301329354.7815
0.6666666666666666,304101527.0919
0.7,306065149.1451
0.7333333333333333,311349602.6118
0.7666666666666667,315401979.4961
0.8,314862945.9913
0.8333333333333334,310695061.9274
0.8666666666666667,304361418.246
0.9,299818135.8484
0.9333333333333333,293542245.7568
0.9666666666666667,288488806.6493
1.0,280788328.0093
1.0333333333333334,273299612.5319
1.0666666666666667,269025846.8867
1.1,267620509.53489998
1.1333333333333333,267774519.1077
1.1666666666666667,264963844.4041
1.2,259535006.96289998
1.2333333333333334,255655890.848
1.2666666666666666,255039852.55679998
1.3,254462316.65879998
1.3333333333333333,252720083.3665
1.3666666666666667,248658080.8839
1.4,245144737.50439999
1.4333333333333333,245125486.3078
1.4666666666666666,245366126.2653
1.5,248070919.3876
1.5333333333333334,248253805.7553
1.5666666666666667,249476256.7394
1.6,251555385.97219998
1.6333333333333333,254250553.4962
1.6666666666666667,257427000.93519998
1.7,259929656.4932
1.7333333333333334,261537131.4093
1.7666666666666666,258351058.37199998
1.8,252941472.12739998
1.8333333333333333,244778964.769
1.8666666666666667,239003605.789
1.9,235779030.3585
1.9333333333333333,235856035.1449
1.9666666666666666,240697711.0898
2.0,244701959.9826
2.033333333333333,249052730.41419998
2.066666666666667,250178925.41529998
2.1,254086918.3251
2.1333333333333333,256406687.5154
2.1666666666666665,258957471.06489998
2.2,260882590.72489998
2.2333333333333334,263385246.28289998
2.2666666666666666,265993783.4222
2.3,267456874.3638
2.3333333333333335,270354179.4521
2.3666666666666667,271547753.64129996
2.4,273482498.89959997
2.433333333333333,275157353.0038
2.466666666666667,278757326.768
2.5,280114536.1283
2.533333333333333,283820391.4738
2.566666666666667,289547622.4623
2.6,293609624.9449
2.6333333333333333,294755071.1426
2.6666666666666665,289923020.796
2.7,285398989.59499997
2.7333333333333334,280441806.4705
2.7666666666666666,277573378.1771
2.8,275446120.9528
2.8333333333333335,274512437.9177
2.8666666666666667,274464309.9262
2.9,273434370.9081
2.933333333333333,273771266.8486
2.966666666666667,271403369.66679996
3.0,272683574.2407
3.033333333333333,272231171.1206
3.066666666666667,273203356.5489
3.1,275243983.3885
3.1333333333333333,277053595.8689
3.1666666666666665,281519873.4801
3.2,281991527.7968
3.2333333333333334,285177600.8341
3.2666666666666666,287487744.4261
3.3,291222476.5665
3.3333333333333335,293532620.1585
3.3666666666666667,296093029.3063
3.4,298152907.3425
3.433333333333333,300838449.2682
3.466666666666667,304091901.4936
3.5,302907952.9027
3.533333333333333,299221348.7538
3.566666666666667,290259916.73649997
3.6,281972276.6002
3.6333333333333333,274348802.7466
3.6666666666666665,266802333.6794
3.7,260853713.92999998
3.7333333333333334,254866591.78739998
3.7666666666666666,249582138.3207
3.8,244355438.4438
3.8333333333333335,241275246.9878
3.8666666666666667,235682774.3755
3.9,232881725.27019998
3.933333333333333,229118116.3349
3.966666666666667,226981233.51229998
4.0,224873227.48459998
4.033333333333333,223612274.10729998
4.066666666666666,223978046.8427
4.1,223756658.08179998
4.133333333333334,226586583.982
4.166666666666667,228386570.86409998
4.2,231274250.3541
4.233333333333333,232564080.52629998
4.266666666666667,235317001.6401
4.3,237646396.4287
4.333333333333333,239244245.7465
4.366666666666666,241573640.53509998
4.4,239013231.38729998
4.433333333333334,233988669.0747
4.466666666666667,223207998.97869998
4.5,214920358.84239998
4.533333333333333,204264821.52429998
4.566666666666666,194186820.1042
4.6,185639288.8138
4.633333333333334,178246829.31939998
4.666666666666667,171730299.2703
4.7,166975253.7101
4.733333333333333,162865123.236
4.766666666666667,159226647.0786
4.8,155838436.477
4.833333333333333,153172145.7479
4.866666666666666,150159333.48
4.9,148003199.4608
4.933333333333334,141939072.5318
4.966666666666667,136760500.6464
5.0,126826883.2008
5.033333333333333,120194845.97209999
5.066666666666666,113813074.2992
5.1,108884767.96959999
5.133333333333334,106122221.2575
5.166666666666667,102483745.1001
5.2,100317985.4826
5.233333333333333,99644193.60159999
5.266666666666667,102993901.81
5.3,105111533.43599999
5.333333333333333,107094406.6858
5.366666666666666,106247354.0354
5.4,103070906.5964
5.433333333333334,100356487.8758
5.466666666666667,99336174.456
5.5,101222791.7228
5.533333333333333,102127597.963
5.566666666666666,112205599.3831
5.6,127577679.86819999
5.633333333333334,144403225.6966
5.666666666666667,155174270.1943
5.7,159371031.0531
5.733333333333333,143758310.6105
5.766666666666667,99865582.3625
5.8,26739912.0774
5.833333333333333,-62104360.2316
5.866666666666666,-127038646.3634
5.9,-174694983.5467
5.933333333333334,-202050933.91529998
5.966666666666667,-220647589.83089998
6.0,-233796157.10869998
6.033333333333333,-251439878.79259998
6.066666666666666,-273780892.4469
6.1,-289624627.24869996
6.133333333333334,-292598937.1234
6.166666666666667,-269728515.5626
6.2,-240052796.0037
6.233333333333333,-211416641.0612
6.266666666666667,-153836312.03059998
6.3,-103773575.27229999
6.333333333333333,-87053911.0252
6.366666666666666,-78535256.5297
6.4,-72047603.2755
6.433333333333334,-67292557.7153
6.466666666666667,-57281935.4833
6.5,-51766467.6574
6.533333333333333,-47203934.0632
6.566666666666666,-46183620.6434
6.6,-46549393.3788
6.633333333333334,-51294813.3407
6.666666666666667,-59120424.7586
6.7,-65771713.1839
6.733333333333333,-67629453.6558
6.766666666666667,-66840154.595199995
6.8,-69198426.1787
6.833333333333333,-71008038.6591
6.866666666666666,-78679640.5042
6.9,-87592944.53
6.933333333333334,-91404681.4568
6.966666666666667,-98787515.3529
7.0,-104456992.7516
7.033333333333333,-108191724.89199999
7.066666666666666,-112561746.5202
7.1,-118731755.0305
7.133333333333334,-119906078.02309999
7.166666666666667,-124497488.41219999
7.2,-130099586.6228
7.233333333333333,-132342351.02669999
7.266666666666667,-136837505.4328
7.3,-141534797.4032
7.333333333333333,-146549734.1175
7.366666666666666,-144297344.1153
7.4,-143209651.5074
7.433333333333334,-142189338.0876
7.466666666666667,-151256651.6862
7.5,-171576289.6975
7.533333333333333,-194273450.4889
7.566666666666666,-222322443.9351
7.6,-245866657.3769
7.633333333333334,-263866526.1979
7.666666666666667,-278612942.7935
7.7,-292868453.8758
7.733333333333333,-300222410.977
7.766666666666667,-308760316.6691
7.8,-315401979.4961
7.833333333333333,-314757064.40999997
7.866666666666666,-300896202.858
7.9,-275917775.2695
7.933333333333334,-248619578.49069998
7.966666666666667,-217076492.86159998
8.0,-189133380.9967
8.033333333333333,-162066198.5771
8.066666666666666,-139436416.9738
8.1,-120743505.07519999
8.133333333333333,-103398176.9386
8.166666666666666,-88690262.73619999
8.2,-81480689.60949999
8.233333333333333,-88083850.0433
8.266666666666667,-92588630.0477
8.3,-99422804.8407
8.333333333333334,-107845203.3532
8.366666666666667,-116103966.6946
8.4,-126961641.57699999
8.433333333333334,-137867444.4509
8.466666666666667,-149524043.9922
8.5,-158793495.1551
8.533333333333333,-171104635.38079998
8.566666666666666,-180191200.176
8.6,-189595409.7151
8.633333333333333,-155694052.5025
8.666666666666666,-134363726.6697
8.7,-119097527.7659
8.733333333333333,-110299730.9197
8.766666666666667,-103581063.3063
8.8,-88545878.76169999
8.833333333333334,-72124608.0619
8.866666666666667,-54384630.394999996
8.9,-46636023.7635
8.933333333333334,-43632837.093899995
8.966666666666667,-40658527.2192
9.0,-40822162.3903
9.033333333333333,-38839289.1405
9.066666666666666,-38945170.7218
9.1,-36760159.9077
9.133333333333333,-35528083.3253
9.166666666666666,-30484269.816099998
9.2,-29791226.7385
9.233333333333333,-28963425.2847
9.266666666666667,-28193377.4207
9.3,-26104622.5896
9.333333333333334,-23447957.4588
9.366666666666667,-21647970.5767
9.4,-17874736.0431
9.433333333333334,-16738915.443699999
9.466666666666667,-19588092.5405
9.5,-24997678.785099998
9.533333333333333,-30551649.0042
9.566666666666666,-36683155.1213
9.6,-45018923.2491
9.633333333333333,-50399632.6988
9.666666666666666,-54384630.394999996
9.7,-54394255.9933
9.733333333333333,-54548265.5661
9.766666666666667,-52546141.1197
9.8,-52266998.769
9.833333333333334,-49687338.4246
9.866666666666667,-48253124.277899995
9.9,-48869162.5691
9.933333333333334,-45278814.4032
9.966666666666667,-44961169.6593
