Time (s),PPGG
0.0,-305357432.58790004
0.03333333333333333,-287996035.5448
0.06666666666666667,-270718509.985
0.1,-260784398.74080002
0.13333333333333333,-249517662.81750003
0.16666666666666666,-235343382.1398
0.2,-226713938.4136
0.23333333333333334,-218932528.57410002
0.26666666666666666,-212530338.6822
0.3,-208057192.90620002
0.3333333333333333,-204637100.1983
0.36666666666666664,-200601949.9462
0.4,-196501566.31820002
0.43333333333333335,-191925910.9515
0.4666666666666667,-187564593.8199
0.5,-184069948.68240002
0.5333333333333333,-179745907.7656
0.5666666666666667,-175300719.1507
0.6,-169494948.6956
0.6333333333333333,-166056217.88030002
0.6666666666666666,-160259766.47890002
0.7,-157044692.9524
0.7333333333333333,-154286253.0572
0.7666666666666667,-154370124.54050002
0.8,-159206713.4108
0.8333333333333334,-166177365.57840002
0.8666666666666667,-173539418.0014
0.9,-176456281.8095
0.9333333333333333,-179363826.5639
0.9666666666666667,-180463474.9005
1.0,-181199680.1428
1.0333333333333334,-177910054.18670002
1.0666666666666667,-175384590.634
1.1,-173576694.2162
1.1333333333333333,-173567375.1625
1.1666666666666667,-173996051.6327
1.2,-171656969.154
1.2333333333333334,-171079187.8246
1.2666666666666666,-172924360.45720002
1.3,-172449088.71850002
1.3333333333333333,-174583152.0158
1.3666666666666667,-176493558.0243
1.4,-163540073.3813
1.4333333333333333,-142516288.2341
1.4666666666666666,-115053036.98020001
1.5,-55112883.5818
1.5333333333333334,12711189.2468
1.5666666666666667,101465856.6856
1.6,179950926.947
1.6333333333333333,255267518.95040002
1.6666666666666667,305357432.58790004
1.7,296066336.049
1.7333333333333334,290363075.1846
1.7666666666666666,284902109.7164
1.8,279506377.6241
1.8333333333333333,272190920.4696
1.8666666666666667,265164353.97980002
1.9,255994405.139
1.9333333333333333,248166400.03100002
1.9666666666666666,242015824.58900002
2.0,237775655.15550002
2.033333333333333,232584942.2446
2.066666666666667,230627940.96760002
2.1,229742630.8661
2.1333333333333333,226853724.2191
2.1666666666666665,226210709.5138
2.2,223778436.4981
2.2333333333333334,218597042.64090002
2.2666666666666666,210414913.4923
2.3,204022042.6541
2.3333333333333335,195653532.43150002
2.3666666666666667,183725143.69550002
2.4,178096435.26070002
2.433333333333333,167509990.2575
2.466666666666667,158992375.1757
2.5,154202381.5739
2.533333333333333,147073305.4934
2.566666666666667,139385086.1909
2.6,134911940.4149
2.6333333333333333,127652397.58260001
2.6666666666666665,119563458.971
2.7,116199280.5853
2.7333333333333334,109442966.65280001
2.7666666666666666,103609239.03660001
2.8,100757608.60440001
2.8333333333333335,98008487.76290001
2.8666666666666667,89584063.2181
2.9,76733088.1658
2.933333333333333,72520875.8934
2.966666666666667,76220540.2123
3.0,87226342.632
3.033333333333333,95967615.0026
3.066666666666667,106852269.72420001
3.1,113478116.9049
3.1333333333333333,121865265.2349
3.1666666666666665,130858152.0554
3.2,130634494.76660001
3.2333333333333334,134278244.7633
3.2666666666666666,135937036.3219
3.3,136337755.631
3.3333333333333335,139422362.4057
3.3666666666666667,144855370.7128
3.4,147380834.2655
3.433333333333333,152720652.0356
3.466666666666667,159514242.1829
3.5,162822506.2464
3.533333333333333,168581681.433
3.566666666666667,173483503.6792
3.6,176437643.7021
3.6333333333333333,182569581.0367
3.6666666666666665,191049919.9037
3.7,196865009.4125
3.7333333333333334,208103788.17470002
3.7666666666666666,220563362.9716
3.8,226229347.6212
3.8333333333333335,235893206.30810001
3.8666666666666667,241708295.8169
3.9,242164929.44820002
3.933333333333333,238400031.7534
3.966666666666667,232771323.3186
4.0,221802797.1137
4.033333333333333,218056537.5263
4.066666666666666,218364066.2984
4.1,216090217.1956
4.133333333333334,223713203.1222
4.166666666666667,237179235.71870002
4.2,243273896.83850002
4.233333333333333,234131905.1588
4.266666666666667,223060869.3632
4.3,209054331.6521
4.333333333333333,191459958.2665
4.366666666666666,180705770.2967
4.4,170883487.6969
4.433333333333334,166102813.14880002
4.466666666666667,162282001.1318
4.5,131352061.9015
4.533333333333333,81066448.1363
4.566666666666666,53975959.0304
4.6,30286924.525000002
4.633333333333334,16103324.7936
4.666666666666667,-2199296.6732
4.7,-14192918.7851
4.733333333333333,-27528484.6298
4.766666666666667,-38972282.5734
4.8,-44563714.793400005
4.833333333333333,-47899936.018
4.866666666666666,-55439050.4613
4.9,-61421882.9367
4.933333333333334,-73490057.4782
4.966666666666667,-90096611.1716
5.0,-105547602.2062
5.033333333333333,-117233695.546
5.066666666666666,-131221595.1497
5.1,-144585118.1555
5.133333333333334,-167109270.94840002
5.166666666666667,-185859206.9928
5.2,-195206217.85390002
5.233333333333333,-204860757.4871
5.266666666666667,-208616336.1282
5.3,-211486604.6678
5.333333333333333,-211039290.0902
5.366666666666666,-209250031.7798
5.4,-205801981.9108
5.433333333333334,-200322378.3352
5.466666666666667,-192867135.3752
5.5,-184740920.54880002
5.533333333333333,-177854139.86450002
5.566666666666666,-172244069.53710002
5.6,-169075591.2791
5.633333333333334,-164835421.8456
5.666666666666667,-162524296.528
5.7,-161611029.2654
5.733333333333333,-159747218.5254
5.766666666666667,-158004555.4835
5.8,-159709942.3106
5.833333333333333,-163978068.9052
5.866666666666666,-166550127.72640002
5.9,-168031857.2647
5.933333333333334,-170594597.0322
5.966666666666667,-179186764.5436
6.0,-185346659.0393
6.033333333333333,-195094389.2095
6.066666666666666,-201235645.59780002
6.1,-205913810.5552
6.133333333333334,-209650751.0889
6.166666666666667,-210321722.9553
6.2,-209063650.7058
6.233333333333333,-203146051.6063
6.266666666666667,-196389737.67380002
6.3,-186819069.5239
6.333333333333333,-178497154.56980002
6.366666666666666,-172458407.77220002
6.4,-169196738.9772
6.433333333333334,-170147282.4546
6.466666666666667,-170529363.6563
6.5,-172048369.40940002
6.533333333333333,-170976678.2339
6.566666666666666,-170398896.9045
6.6,-170529363.6563
6.633333333333334,-170268430.1527
6.666666666666667,-168917167.3662
6.7,-166009622.61180001
6.733333333333333,-163008887.3204
6.766666666666667,-159262627.733
6.8,-155870492.1862
6.833333333333333,-150530674.4161
6.866666666666666,-145610214.0625
6.9,-142805178.89880002
6.933333333333334,-138835262.0226
6.966666666666667,-136757113.0475
7.0,-139646019.6945
7.033333333333333,-150204507.5366
7.066666666666666,-158600974.9203
7.1,-166401022.86720002
7.133333333333334,-169457672.4808
7.166666666666667,-173520779.894
7.2,-174853404.5731
7.233333333333333,-173958775.4179
7.266666666666667,-171191016.469
7.3,-169289929.5142
7.333333333333333,-169429715.3197
7.366666666666666,-170305706.3675
7.4,-171377397.543
7.433333333333334,-170725063.784
7.466666666666667,-169178100.8698
7.5,-164239002.4088
7.533333333333333,-157408136.0467
7.566666666666666,-151872618.1489
7.6,-146290504.9826
7.633333333333334,-144613075.3166
7.666666666666667,-142581521.61
7.7,-141612340.0252
7.733333333333333,-140167886.7017
7.766666666666667,-138266799.7469
7.8,-135489721.7443
7.833333333333333,-132488986.4529
7.866666666666666,-131137723.6664
7.9,-128369964.7175
7.933333333333334,-127913331.0862
7.966666666666667,-125583567.6612
8.0,-125182848.3521
8.033333333333333,-125723353.4667
8.066666666666666,-132992215.35270001
8.1,-143410917.38930002
8.133333333333333,-152729971.0893
8.166666666666666,-163633263.9183
8.2,-168693510.0774
8.233333333333333,-175543014.5469
8.266666666666667,-178627621.32160002
8.3,-184862068.24690002
8.333333333333334,-188925175.6601
8.366666666666667,-192047058.6496
8.4,-195187579.74650002
8.433333333333334,-197042071.4328
8.466666666666667,-198523800.9711
8.5,-197741000.4603
8.533333333333333,-199390472.9652
8.566666666666666,-198309462.736
8.6,-198402653.273
8.633333333333333,-197554619.3863
8.666666666666666,-197573257.4937
8.7,-196343142.40530002
8.733333333333333,-196054251.74060002
8.766666666666667,-195933104.04250002
8.8,-192820540.1067
8.833333333333334,-193519469.1342
8.866666666666667,-190434862.35950002
8.9,-187909398.8068
8.933333333333334,-184638410.95810002
8.966666666666667,-181852013.9018
9.0,-177807544.59600002
9.033333333333333,-171041911.6098
9.066666666666666,-167044037.57250002
9.1,-162794549.0853
9.133333333333333,-165963027.3433
9.166666666666666,-173846946.7735
9.2,-181693589.9889
9.233333333333333,-188981089.9823
9.266666666666667,-195877189.72030002
9.3,-204525271.5539
9.333333333333334,-212679443.54140002
9.366666666666667,-218159047.117
9.4,-220982720.3881
9.433333333333334,-223918222.3036
9.466666666666667,-226965552.8635
9.5,-229500335.4699
9.533333333333333,-231093893.65260002
9.566666666666666,-233684590.5812
9.6,-236638730.60410002
9.633333333333333,-236983535.59100002
9.666666666666666,-239248065.6401
9.7,-239015089.2976
9.733333333333333,-239527637.2511
9.766666666666667,-239145556.0494
9.8,-237225830.98720002
9.833333333333334,-235650910.9119
9.866666666666667,-232612899.4057
9.9,-230944788.79340002
9.933333333333334,-227291719.743
9.966666666666667,-224337579.72010002
