Time (s),PPGG
0.0,-429900262.555
0.03333333333333333,-429226310.93
0.06666666666666667,-432205177.11249995
0.1,-435696246.53
0.13333333333333333,-440076932.0925
0.16666666666666666,-441667457.92749995
0.2,-441667457.92749995
0.23333333333333334,-437125023.97499996
0.26666666666666666,-433943972.305
0.3,-428417568.97999996
0.3333333333333333,-424252547.9375
0.36666666666666664,-421138891.43
0.4,-415167680.03249997
0.43333333333333335,-406621973.4275
0.4666666666666667,-406406308.90749997
0.5,-419925778.505
0.5333333333333333,-414682434.86249995
0.5666666666666667,-395340023.22499996
0.6,-382764085.9025
0.6333333333333333,-377453347.09749997
0.6666666666666666,-375256264.79999995
0.7,-356709116.08
0.7333333333333333,-341343019.03
0.7666666666666667,-323941588.0725
0.8,-308885508.77
0.8333333333333334,-291834532.65749997
0.8666666666666667,-269351506.4475
0.9,-247084144.7575
0.9333333333333333,-222040102.3725
0.9666666666666667,-189771298.5675
1.0,-143389947.73499998
1.0333333333333334,-90875637.115
1.0666666666666667,-29640392.467499997
1.1,38833092.6325
1.1333333333333333,96294208.17999999
1.1666666666666667,121001274.7525
1.2,120286886.03
1.2333333333333334,121405645.72749999
1.2666666666666666,130692699.11999999
1.3,139952794.4475
1.3333333333333333,136866096.005
1.3666666666666667,132081039.46749999
1.4,131285776.55
1.4333333333333333,146746226.8275
1.4666666666666666,171102838.55499998
1.5,183139614.5775
1.5333333333333334,179837251.61499998
1.5666666666666667,174297369.2575
1.6,184554912.98999998
1.6333333333333333,200473650.3725
1.6666666666666667,213642665.125
1.7,224668513.70999998
1.7333333333333334,222875802.3875
1.7666666666666666,222377078.185
1.8,219438649.1
1.8333333333333333,216176723.23499998
1.8666666666666667,217282003.89999998
1.9,222201850.7625
1.9333333333333333,239589802.6875
1.9666666666666666,273219988.775
2.0,310233412.02
2.033333333333333,345831536.85249996
2.066666666666667,371172117.9525
2.1,398925445.87
2.1333333333333333,429334143.19
2.1666666666666665,441667457.92749995
2.2,436882401.39
2.2333333333333334,409519965.41499996
2.2666666666666666,386187760.15749997
2.3,366279229.155
2.3333333333333335,347449020.7525
2.3666666666666667,332082923.7025
2.4,313805355.6325
2.433333333333333,300191532.8075
2.466666666666667,285890279.325
2.5,278476811.45
2.533333333333333,268017082.23
2.566666666666667,261129296.62249997
2.6,246828043.14
2.6333333333333333,238201462.33999997
2.6666666666666665,233632070.3225
2.7,226178165.35
2.7333333333333334,220287828.14749998
2.7666666666666666,206269634.3475
2.8,189393885.6575
2.8333333333333335,172855112.78
2.8666666666666667,153526180.17499998
2.9,134749887.9025
2.933333333333333,117361935.97749999
2.966666666666667,104759040.58999999
3.0,93773629.10249999
3.033333333333333,85039216.04249999
3.066666666666667,70953627.08
3.1,60224317.20999999
3.1333333333333333,52298646.099999994
3.1666666666666665,45262591.135
3.2,26162802.0825
3.2333333333333334,-5742067.845
3.2666666666666666,-32659695.7475
3.3,-52244729.97
3.3333333333333335,-63540159.205
3.3666666666666667,-71344519.0225
3.4,-78380573.9875
3.433333333333333,-87546316.08749999
3.466666666666667,-96577267.8625
3.5,-99610050.175
3.533333333333333,-99461780.8175
3.566666666666667,-98019524.33999999
3.6,-98086919.5025
3.6333333333333333,-94299311.36999999
3.6666666666666665,-92088750.03999999
3.7,-89015530.63
3.7333333333333334,-91131738.7325
3.7666666666666666,-91428277.44749999
3.8,-86157975.74
3.8333333333333335,-79957620.78999999
3.8666666666666667,-73460727.125
3.9,-68796981.88
3.933333333333333,-63405368.879999995
3.966666666666667,-61221765.614999995
4.0,-62650543.059999995
4.033333333333333,-68783502.8475
4.066666666666666,-71182770.6325
4.1,-73015919.0525
4.133333333333334,-75725204.585
4.166666666666667,-79634124.00999999
4.2,-82046870.8275
4.233333333333333,-87492399.9575
4.266666666666667,-95027179.125
4.3,-100459229.2225
4.333333333333333,-108573606.7875
4.366666666666666,-114383069.795
4.4,-119909473.11999999
4.433333333333334,-124950631.27499999
4.466666666666667,-124748445.7875
4.5,-124883236.1125
4.533333333333333,-124869757.08
4.566666666666666,-122241345.74249999
4.6,-117227145.65249999
4.633333333333334,-112563400.4075
4.666666666666667,-108492732.5925
4.7,-98410416.2825
4.733333333333333,-95094574.2875
4.766666666666667,-90673451.6275
4.8,-85807520.895
4.833333333333333,-78919735.2875
4.866666666666666,-71668015.8025
4.9,-67583868.955
4.933333333333334,-69430496.4075
4.966666666666667,-75819557.8125
5.0,-79566728.8475
5.033333333333333,-82491678.89999999
5.066666666666666,-82289493.4125
5.1,-79755435.3025
5.133333333333334,-80469824.02499999
5.166666666666667,-88934656.435
5.2,-94703682.345
5.233333333333333,-93867982.33
5.266666666666667,-88395495.13499999
5.3,-84109162.8
5.333333333333333,-83030840.2
5.366666666666666,-80510261.1225
5.4,-77962723.97999999
5.433333333333334,-75765641.68249999
5.466666666666667,-78070556.24
5.5,-80779841.7725
5.533333333333333,-82168182.11999999
5.566666666666666,-82559074.0625
5.6,-83866540.21499999
5.633333333333334,-85281838.6275
5.666666666666667,-83502606.33749999
5.7,-79391501.425
5.733333333333333,-77774017.52499999
5.766666666666667,-78623196.57249999
5.8,-80496782.08999999
5.833333333333333,-77463999.7775
5.866666666666666,-73797702.9375
5.9,-69376580.2775
5.933333333333334,-68850898.00999999
5.966666666666667,-74781672.31
6.0,-86656699.9425
6.033333333333333,-94919346.865
6.066666666666666,-100405313.0925
6.1,-106174339.0025
6.133333333333334,-117213666.61999999
6.166666666666667,-128118203.9125
6.2,-134332037.89499998
6.233333333333333,-142298146.1025
6.266666666666667,-147123639.73749998
6.3,-151275181.7475
6.333333333333333,-155170622.14
6.366666666666666,-163284999.70499998
6.4,-171224149.8475
6.433333333333334,-178785887.07999998
6.466666666666667,-184730140.4125
6.5,-188409916.285
6.533333333333333,-191712279.2475
6.566666666666666,-194772019.625
6.6,-200028842.29999998
6.633333333333334,-201511535.875
6.666666666666667,-205339581.105
6.7,-209410248.92
6.733333333333333,-213669623.19
6.766666666666667,-217241566.80249998
6.8,-220166516.855
6.833333333333333,-225409860.4975
6.866666666666666,-237851007.49499997
6.9,-250952627.08499998
6.933333333333334,-263056798.26999998
6.966666666666667,-270510703.2425
7.0,-274972263.0
7.033333333333333,-279892109.8625
7.066666666666666,-292104113.3075
7.1,-300299365.0675
7.133333333333334,-306270576.465
7.166666666666667,-312700074.9675
7.2,-317849065.3825
7.233333333333333,-322971097.73249996
7.266666666666667,-330020631.72999996
7.3,-333996946.3175
7.333333333333333,-333996946.3175
7.366666666666666,-335857052.8025
7.4,-335830094.7375
7.433333333333334,-332433378.54749995
7.466666666666667,-324979473.575
7.5,-320652704.1425
7.533333333333333,-319237405.72999996
7.566666666666666,-318469100.8775
7.6,-316824658.91249996
7.633333333333334,-321838859.0025
7.666666666666667,-333444305.98499995
7.7,-347799475.59749997
7.733333333333333,-358137893.525
7.766666666666667,-360267580.65999997
7.8,-367937150.1525
7.833333333333333,-384610713.35499996
7.866666666666666,-398938924.9025
7.9,-400731636.22499996
7.933333333333334,-393695581.26
7.966666666666667,-394733466.7625
8.0,-402645658.84
8.033333333333333,-413482800.96999997
8.066666666666666,-400664241.0625
8.1,-386551694.03499997
8.133333333333333,-372115650.22749996
8.166666666666666,-354673782.17249995
8.2,-343809681.97749996
8.233333333333333,-342920065.8325
8.266666666666667,-343904035.205
8.3,-337420620.5725
8.333333333333334,-328551417.1875
8.366666666666667,-319493507.34749997
8.4,-313737960.46999997
8.433333333333334,-315894605.66999996
8.466666666666667,-328052692.98499995
8.5,-346694194.9325
8.533333333333333,-358501827.4025
8.566666666666666,-366697079.16249996
8.6,-373126577.66499996
8.633333333333333,-379461722.94
8.666666666666666,-389301416.66499996
8.7,-400030726.53499997
8.733333333333333,-403535274.98499995
8.766666666666667,-404815783.0725
8.8,-405017968.56
8.833333333333334,-400879905.5825
8.866666666666667,-393938203.84499997
8.9,-386861711.78249997
8.933333333333334,-378396879.3725
8.966666666666667,-366104001.73249996
9.0,-354916404.7575
9.033333333333333,-346411135.25
9.066666666666666,-340520798.04749995
9.1,-335439202.79499996
9.133333333333333,-329063620.42249995
9.166666666666666,-324467270.34
9.2,-320032668.6475
9.233333333333333,-318199520.22749996
9.266666666666667,-315692420.1825
9.3,-315166737.91499996
9.333333333333334,-314587139.5175
9.366666666666667,-311203902.36
9.4,-310219932.9875
9.433333333333334,-320612267.04499996
9.466666666666667,-334873083.43
9.5,-343068335.19
9.533333333333333,-346788548.15999997
9.566666666666666,-351533167.59999996
9.6,-354700740.2375
9.633333333333333,-358515306.435
9.666666666666666,-364998721.0675
9.7,-367034054.97499996
9.733333333333333,-366171396.895
9.766666666666667,-364419122.66999996
9.8,-367249719.495
9.833333333333334,-371616926.025
9.866666666666667,-372250440.5525
9.9,-372749164.755
9.933333333333334,-373611822.835
9.966666666666667,-375903258.35999995
