Time (s),PPGG
0.0,24612988.552800003
0.03333333333333333,23859287.3152
0.06666666666666667,21578747.180800002
0.1,19002341.517600004
0.13333333333333333,16844898.720000003
0.16666666666666666,16078239.868
0.2,16108474.301600002
0.23333333333333334,17188275.5016
0.26666666666666666,18114744.9312
0.3,17665547.632000003
0.3333333333333333,16745557.009600002
0.36666666666666664,16425935.854400001
0.4,16175421.976000002
0.43333333333333335,15413082.328800002
0.4666666666666667,13262118.3384
0.5,11042047.071200002
0.5333333333333333,9415866.464000002
0.5666666666666667,7787526.254400001
0.6,6919366.0896000005
0.6333333333333333,5988577.455200001
0.6666666666666666,5638721.866400001
0.7,5623604.6496
0.7333333333333333,5923789.383200001
0.7666666666666667,6383784.6944
0.8,6375146.2848000005
0.8333333333333334,5448676.8552
0.8666666666666667,4254416.728
0.9,2945697.6736000003
0.9333333333333333,1308719.0544
0.9666666666666667,-291546.324
1.0,-1796789.1968000003
1.0333333333333334,-4224182.2944
1.0666666666666667,-8200010.3128
1.1,-12605599.208800001
1.1333333333333333,-16192698.795200001
1.1666666666666667,-18542346.206400003
1.2,-19293887.8416
1.2333333333333334,-20019514.248000003
1.2666666666666666,-21269924.037600003
1.3,-22321650.406400003
1.3333333333333333,-23479197.2928
1.3666666666666667,-25008195.792000003
1.4,-26511279.062400002
1.4333333333333333,-27653708.732000005
1.4666666666666666,-28118023.248000003
1.5,-28204407.344000004
1.5333333333333334,-28223843.765600003
1.5666666666666667,-28107225.236
1.6,-27902063.008
1.6333333333333333,-27422631.275200002
1.6666666666666667,-26738037.314400002
1.7,-25930346.0168
1.7333333333333334,-24885098.4552
1.7666666666666666,-23289152.281600002
1.8,-21079879.026400004
1.8333333333333333,-19248536.191200003
1.8666666666666667,-17484141.0304
1.9,-16814664.2864
1.9333333333333333,-17399916.5368
1.9666666666666666,-18581219.0496
2.0,-19984960.609600004
2.033333333333333,-19814352.020000003
2.066666666666667,-18255119.0872
2.1,-14249056.635200001
2.1333333333333333,4379673.6672
2.1666666666666665,33616370.9584
2.2,50467748.4856
2.2333333333333334,62282933.216000006
2.2666666666666666,70763691.8408
2.3,70653552.11840001
2.3333333333333335,69822105.19440001
2.3666666666666667,66660447.28080001
2.4,59566153.396800004
2.433333333333333,50677229.918400005
2.466666666666667,41054041.624000005
2.5,24027736.302400004
2.533333333333333,15009236.680000002
2.566666666666667,7115889.908000001
2.6,-537740.9976
2.6333333333333333,-6869695.2344
2.6666666666666665,-12339968.1136
2.7,-17104051.008
2.7333333333333334,-20801290.316800002
2.7666666666666666,-24120599.2056
2.8,-25820206.294400003
2.8333333333333335,-26716441.290400002
2.8666666666666667,-27781125.273600005
2.9,-29307964.1704
2.933333333333333,-30690109.706400003
2.966666666666667,-32810839.263200004
3.0,-34821429.097600006
3.033333333333333,-37471261.242400005
3.066666666666667,-40691228.4208
3.1,-43954387.6472
3.1333333333333333,-46565346.948800005
3.1666666666666665,-49225977.10560001
3.2,-51469803.99920001
3.2333333333333334,-53264433.593600005
3.2666666666666666,-54806389.707200006
3.3,-55959617.3888
3.3333333333333335,-57134441.0944
3.3666666666666667,-59181744.1696
3.4,-60704263.861600004
3.433333333333333,-62686778.864800006
3.466666666666667,-64926286.553600006
3.5,-67275933.9648
3.533333333333333,-69156947.6552
3.566666666666667,-70763691.8408
3.6,-70433272.6736
3.6333333333333333,-70653552.11840001
3.6666666666666665,-70355526.9872
3.7,-70254025.6744
3.7333333333333334,-69681731.03840001
3.7666666666666666,-67062133.32720001
3.8,-65293418.961600006
3.8333333333333335,-61432049.870400004
3.8666666666666667,-59011135.580000006
3.9,-57467019.86400001
3.933333333333333,-56192854.44800001
3.966666666666667,-52409231.04320001
4.0,-47558764.05280001
4.033333333333333,-42306611.016
4.066666666666666,-37339525.49600001
4.1,-34154111.956
4.133333333333334,-30774334.200000003
4.166666666666667,-28783180.787200004
4.2,-26189498.304800004
4.233333333333333,-20390965.8608
4.266666666666667,-16935602.020800002
4.3,-14866702.921600001
4.333333333333333,-13501834.204800002
4.366666666666666,-12823719.0512
4.4,-13018083.2672
4.433333333333334,-11422137.093600001
4.466666666666667,-10003278.3168
4.5,-9294928.729600001
4.533333333333333,-8137381.843200001
4.566666666666666,-7394478.6176
4.6,-6841620.4032000005
4.633333333333334,-6567350.8984
4.666666666666667,-5869799.3232
4.7,-5431400.036
4.733333333333333,-4491972.992000001
4.766666666666667,-3716675.7304000002
4.8,1094918.4168
4.833333333333333,3667004.8752000006
4.866666666666666,5800692.0464
4.9,6908568.0776
4.933333333333334,7359924.979200001
4.966666666666667,7822079.8928000005
5.0,8349022.878400001
5.033333333333333,8800379.780000001
5.066666666666666,9009861.212800002
5.1,9297088.332
5.133333333333334,10089662.412800001
5.166666666666667,11083079.516800001
5.2,12273020.4392
5.233333333333333,13294512.374400001
5.266666666666667,14216662.599200001
5.3,14920692.981600001
5.333333333333333,15419561.136000002
5.366666666666666,15702469.050400002
5.4,15875237.242400002
5.433333333333334,15598808.135200001
5.466666666666667,14203704.984800002
5.5,12370202.547200002
5.533333333333333,10636041.82
5.566666666666666,9713891.5952
5.6,9137277.754400002
5.633333333333334,8729112.9008
5.666666666666667,8433247.372000001
5.7,8117945.421600001
5.733333333333333,7873910.350400001
5.766666666666667,7547810.388000001
5.8,7288658.100000001
5.833333333333333,7111570.7032
5.866666666666666,6958238.9328000005
5.9,6755236.307200001
5.933333333333334,6766034.319200001
5.966666666666667,6848099.210400001
6.0,6923685.294400001
6.033333333333333,7195795.196800001
6.066666666666666,7262742.871200001
6.1,7487341.520800001
6.133333333333334,7636354.0864
6.166666666666667,7867431.543200001
6.2,8143860.650400001
6.233333333333333,8431087.7696
6.266666666666667,8677282.443200001
6.3,9098404.911200002
6.333333333333333,9275492.308
6.366666666666666,9273332.7056
6.4,9536804.1984
6.433333333333334,9662061.137600001
6.466666666666667,9828350.522400001
6.5,9657741.9328
6.533333333333333,8560663.913600001
6.566666666666666,6964717.740000001
6.6,5781255.6248
6.633333333333334,5025394.7848000005
6.666666666666667,4466057.763200001
6.7,4349439.233600001
6.733333333333333,4133478.9936000006
6.766666666666667,4047094.8976000003
6.8,4053573.7048000004
6.833333333333333,4034137.2832000004
6.866666666666666,3956391.5968000004
6.9,3913199.5488000005
6.933333333333334,4116202.1744000004
6.966666666666667,4204745.8728
7.0,4494132.594400001
7.033333333333333,4727369.653600001
7.066666666666666,5029713.989600001
7.1,5286706.6752
7.133333333333334,5573933.794400001
7.166666666666667,5770457.6128
7.2,5949704.612000001
7.233333333333333,6351390.658400001
7.266666666666667,6675331.0184
7.3,7409595.834400001
7.333333333333333,7847995.121600001
7.366666666666666,8426768.564800002
7.4,9037936.044000002
7.433333333333334,9662061.137600001
7.466666666666667,10644680.229600001
7.5,11549553.635200001
7.533333333333333,12849634.280000001
7.566666666666666,13575260.686400002
7.6,13864647.408000002
7.633333333333334,14082767.250400001
7.666666666666667,14380792.381600002
7.7,14868862.524000002
7.733333333333333,15359092.268800002
7.766666666666667,15892514.061600002
7.8,16283402.096
7.833333333333333,16512319.950400002
7.866666666666666,16466968.3
7.9,16363307.384800002
7.933333333333334,16056643.844000002
7.966666666666667,15857960.423200002
8.0,15765097.520000001
8.033333333333333,15693830.640800001
8.066666666666666,15700309.448
8.1,15644159.785600001
8.133333333333333,15782374.339200001
8.166666666666666,16024249.808000002
8.2,16393541.818400001
8.233333333333333,16628938.480000002
8.266666666666667,16955038.4424
8.3,17650430.415200002
8.333333333333334,18026201.232800003
8.366666666666667,18613613.085600004
8.4,19378112.3352
8.433333333333334,20747300.256800003
8.466666666666667,21935081.576800004
8.5,23328025.124800004
8.533333333333333,24273930.976000004
8.566666666666666,24625946.167200003
8.6,24142195.2296
8.633333333333333,23518070.136000004
8.666666666666666,23269715.860000003
8.7,23159576.1376
8.733333333333333,23369057.570400003
8.766666666666667,23630369.460800003
8.8,23854968.110400002
8.833333333333334,23822574.074400004
8.866666666666667,23602294.629600003
8.9,23373376.775200002
8.933333333333334,22909062.259200003
8.966666666666667,22701740.4288
9.0,22725496.055200003
9.033333333333333,22984648.343200002
9.066666666666666,23103426.4752
9.1,23304269.498400003
9.133333333333333,23269715.860000003
9.166666666666666,23204927.788000003
9.2,23140139.716000002
9.233333333333333,23086149.656000003
9.266666666666667,22991127.1504
9.3,22999765.560000002
9.333333333333334,23047276.8128
9.366666666666667,22958733.114400003
9.4,22993286.752800003
9.433333333333334,23075351.644
9.466666666666667,22833476.175200004
9.5,22313011.9968
9.533333333333333,20980537.316000003
9.566666666666666,18810136.904000003
9.6,15950823.326400002
9.633333333333333,13264277.940800002
9.666666666666666,10720266.313600002
9.7,8904040.695200002
9.733333333333333,7208752.8112
9.766666666666667,5759659.6008
9.8,4422865.7152
9.833333333333334,3280436.0456000003
9.866666666666667,2317253.3752
9.9,1330315.0784000002
9.933333333333334,671636.3464
9.966666666666667,77745.6864
