Time (s),PPGG
0.0,-139730006.0832
0.03333333333333333,-138189000.404
0.06666666666666667,-137956481.7956
0.1,-139479250.7212
0.13333333333333333,-141822673.5588
0.16666666666666666,-145570326.4236
0.2,-148789113.434
0.23333333333333334,-149390926.3028
0.26666666666666666,-148980599.3468
0.3,-147849920.6236
0.3333333333333333,-145378840.5108
0.36666666666666664,-142921437.9632
0.4,-141581036.5736
0.43333333333333335,-139798393.9092
0.4666666666666667,-138530939.534
0.5,-137491444.5788
0.5333333333333333,-135298474.9584
0.5666666666666667,-134537090.49560001
0.6,-137787791.8248
0.6333333333333333,-143678263.2376
0.6666666666666666,-145652391.8148
0.7,-145415314.018
0.7333333333333333,-141540003.878
0.7666666666666667,-134906384.756
0.8,-126777351.8388
0.8333333333333334,-117768395.5604
0.8666666666666667,-110446338.99
0.9,-104925161.8376
0.9333333333333333,-101058970.0744
0.9666666666666667,-96668471.6452
1.0,-94019583.1848
1.0333333333333334,-90522685.682
1.0666666666666667,-85662590.8476
1.1,-81823754.2148
1.1333333333333333,-74205350.3984
1.1666666666666667,-64020123.5128
1.2,-57491365.724
1.2333333333333334,-54226986.8296
1.2666666666666666,-50205782.6608
1.3,-44994630.3196
1.3333333333333333,-38538819.5452
1.3666666666666667,-32251698.7416
1.4,-28700090.978
1.4333333333333333,-33117944.5376
1.4666666666666666,-39304763.1964
1.5,-45710422.8984
1.5333333333333334,-50885101.7324
1.5666666666666667,-51541624.862
1.6,-50593313.6748
1.6333333333333333,-48140470.3156
1.6666666666666667,-43093448.7568
1.7,-39468893.9788
1.7333333333333334,-39405065.3412
1.7666666666666666,-40038792.5288
1.8,-37909651.546
1.8333333333333333,-36313935.606
1.8666666666666667,-35552551.1432
1.9,-32114923.0896
1.9333333333333333,-22230602.6384
1.9666666666666666,-9711071.292
2.0,3095688.9236
2.033333333333333,20311184.322
2.066666666666667,40307784.6444
2.1,56839401.7828
2.1333333333333333,71871045.9376
2.1666666666666665,76817765.3516
2.2,61029295.9224
2.2333333333333334,50187545.9072
2.2666666666666666,48204298.9532
2.3,56383482.9428
2.3333333333333335,66705485.4804
2.3666666666666667,94867592.2272
2.4,139205699.4172
2.433333333333333,149390926.3028
2.466666666666667,144476121.2076
2.5,130173947.1968
2.533333333333333,104159218.1864
2.566666666666667,96358446.834
2.6,90226338.436
2.6333333333333333,79699172.4204
2.6666666666666665,65410675.9748
2.7,33487238.798
2.7333333333333334,19449497.7144
2.7666666666666666,14885750.126
2.8,15314313.8356
2.8333333333333335,17334034.2968
2.8666666666666667,17593908.0356
2.9,14033181.8952
2.933333333333333,3524252.6332
2.966666666666667,-7385885.208
3.0,-16207914.762
3.033333333333333,-22417529.3628
3.066666666666667,-25654553.1268
3.1,-29593691.9044
3.1333333333333333,-32721295.1468
3.1666666666666665,-36250106.9684
3.2,-38643680.8784
3.2333333333333334,-38406603.0816
3.2666666666666666,-31695477.7568
3.3,-23274656.782
3.3333333333333335,-17174462.7028
3.3666666666666667,-14238345.3732
3.4,-11698877.4344
3.433333333333333,-7932987.816
3.466666666666667,-6679211.006
3.5,-5981655.1808
3.533333333333333,-4258281.9656
3.566666666666667,-3560726.1404
3.6,-4194453.328
3.6333333333333333,-3442187.242
3.6666666666666665,-4837298.8924
3.7,-10203463.6392
3.7333333333333334,-12948095.056
3.7666666666666666,-15054440.0968
3.8,-13786985.7216
3.8333333333333335,-11197366.7104
3.8666666666666667,-9364572.9736
3.9,-7395003.5848
3.933333333333333,-5311454.486
3.966666666666667,-4372261.6756
4.0,-5402638.254
4.033333333333333,-5922385.7316
4.066666666666666,-7622963.0048
4.1,-9578854.8284
4.133333333333334,-11589456.9128
4.166666666666667,-8302282.0764
4.2,-4431531.1248
4.233333333333333,-1819116.1716
4.266666666666667,1117001.158
4.3,8092559.41
4.333333333333333,8434498.54
4.366666666666666,-451359.6516
4.4,-9350895.4084
4.433333333333334,-15483003.8064
4.466666666666667,-19978363.5688
4.5,-23735134.8104
4.533333333333333,-25016266.7508
4.566666666666666,-24642413.302
4.6,-23922061.5348
4.633333333333334,-22385615.044
4.666666666666667,-21847630.8128
4.7,-22089267.798
4.733333333333333,-22996546.2896
4.766666666666667,-23320248.666
4.8,-22681962.29
4.833333333333333,-23320248.666
4.866666666666666,-21213903.6252
4.9,-15970836.9652
4.933333333333334,-11470918.0144
4.966666666666667,-10312884.1608
5.0,-11954191.9848
5.033333333333333,-19463175.2796
5.066666666666666,-27286742.574
5.1,-31750188.0176
5.133333333333334,-38862521.9216
5.166666666666667,-44228686.6684
5.2,-46749917.8536
5.233333333333333,-49376010.372
5.266666666666667,-53014242.7152
5.3,-55881972.2188
5.333333333333333,-58922950.8816
5.366666666666666,-61872745.7764
5.4,-62041435.7472
5.433333333333334,-62903122.3548
5.466666666666667,-63810400.8464
5.5,-63582441.4264
5.533333333333333,-63700980.3248
5.566666666666666,-65027704.1492
5.6,-69172006.4048
5.633333333333334,-81609472.36
5.666666666666667,-96385801.9644
5.7,-104738235.1132
5.733333333333333,-106224530.5316
5.766666666666667,-104824859.6928
5.8,-97931366.832
5.833333333333333,-91443641.7388
5.866666666666666,-84805463.4284
5.9,-81340480.2444
5.933333333333334,-78554816.132
5.966666666666667,-75668849.8748
6.0,-72094446.1692
6.033333333333333,-69627925.2448
6.066666666666666,-66956240.8424
6.1,-65246545.1924
6.133333333333334,-63012542.8764
6.166666666666667,-60518666.8216
6.2,-59173706.2436
6.233333333333333,-58357611.52
6.266666666666667,-59661539.4024
6.3,-65556570.0036
6.333333333333333,-73699280.486
6.366666666666666,-78946906.3344
6.4,-82525869.2284
6.433333333333334,-84486320.2404
6.466666666666667,-85106369.8628
6.5,-85197553.6308
6.533333333333333,-84509116.1824
6.566666666666666,-85224908.7612
6.6,-85393598.732
6.633333333333334,-85211231.196
6.666666666666667,-84559267.2548
6.7,-83136800.474
6.733333333333333,-80984863.5492
6.766666666666667,-78226554.5672
6.8,-75545751.788
6.833333333333333,-73653688.602
6.866666666666666,-71374094.402
6.9,-68510924.0868
6.933333333333334,-67699388.5516
6.966666666666667,-71214522.808
7.0,-78404362.9148
7.033333333333333,-83524331.488
7.066666666666666,-86843420.6432
7.1,-88571353.0468
7.133333333333334,-88566793.8584
7.166666666666667,-87554654.0336
7.2,-86223371.0208
7.233333333333333,-86050121.8616
7.266666666666667,-85822162.4416
7.3,-85316092.5292
7.333333333333333,-84057756.5308
7.366666666666666,-82612493.808
7.4,-80346577.1732
7.433333333333334,-77870937.872
7.466666666666667,-75007767.5568
7.5,-72367997.4732
7.533333333333333,-69928831.6792
7.566666666666666,-67302739.1608
7.6,-65305814.6416
7.633333333333334,-63491257.6584
7.666666666666667,-65469945.424
7.7,-72203866.6908
7.733333333333333,-78477309.9292
7.766666666666667,-82977228.88
7.8,-86893571.7156
7.833333333333333,-87969540.178
7.866666666666666,-88065283.1344
7.9,-88156466.9024
7.933333333333334,-88147348.5256
7.966666666666667,-88471050.902
8.0,-88648859.2496
8.033333333333333,-88078960.6996
8.066666666666666,-86884453.3388
8.1,-85407276.2972
8.133333333333333,-83396674.2128
8.166666666666666,-81659623.4324
8.2,-79407384.3628
8.233333333333333,-76881593.9892
8.266666666666667,-74989530.8032
8.3,-72564042.5744
8.333333333333334,-69673517.1288
8.366666666666667,-67425837.2476
8.4,-67352890.2332
8.433333333333334,-71036714.4604
8.466666666666667,-77706807.0896
8.5,-83451384.4736
8.533333333333333,-87349490.5556
8.566666666666666,-89278027.2488
8.6,-90107799.5376
8.633333333333333,-89847925.7988
8.666666666666666,-89209639.4228
8.7,-89332737.5096
8.733333333333333,-90440620.2908
8.766666666666667,-90933012.638
8.8,-91507470.3764
8.833333333333334,-91110820.9856
8.866666666666667,-90066766.842
8.9,-88703569.5104
8.933333333333334,-86478685.5712
8.966666666666667,-84609418.3272
9.0,-81194586.2156
9.033333333333333,-77834464.3648
9.066666666666666,-74720538.6876
9.1,-71114220.6632
9.133333333333333,-67608204.7836
9.166666666666666,-64950197.9464
9.2,-66331632.0316
9.233333333333333,-71820894.8652
9.266666666666667,-77902852.1908
9.3,-82065391.2
9.333333333333334,-84226446.5016
9.366666666666667,-84217328.1248
9.4,-82913400.2424
9.433333333333334,-80560859.028
9.466666666666667,-78650559.0884
9.5,-77611064.1332
9.533333333333333,-76439352.7144
9.566666666666666,-75139984.0204
9.6,-73681043.7324
9.633333333333333,-71602053.822
9.666666666666666,-69281426.9264
9.7,-66714603.8572
9.733333333333333,-64284556.44
9.766666666666667,-62077909.2544
9.8,-59647861.8372
9.833333333333334,-58280105.3172
9.866666666666667,-56716303.696
9.9,-54217868.4528
9.933333333333334,-51705755.6444
9.966666666666667,-51108501.964
