Time (s),PPGG
0.0,65619876.8792
0.03333333333333333,63597038.109
0.06666666666666667,61419462.0198
0.1,59880529.0472
0.13333333333333333,58980239.1912
0.16666666666666666,58428811.6544
0.2,58006800.7844
0.23333333333333334,57911144.9872
0.26666666666666666,58034934.8424
0.3,58018054.4076
0.3333333333333333,57773288.103
0.36666666666666664,57767661.2914
0.4,57750780.8566
0.43333333333333335,57973039.9148
0.4666666666666667,58366916.7268
0.5,58780487.3794
0.5333333333333333,59286900.4234
0.5666666666666667,59917103.3226
0.6,60423516.3666
0.6333333333333333,60685163.106
0.6666666666666666,61329433.0342
0.7,62044038.1074
0.7333333333333333,62753016.369
0.7666666666666667,63436673.9784
0.8,64117518.182
0.8333333333333334,64666132.313
0.8666666666666667,64691452.9652
0.9,63574530.8626
0.9333333333333333,61430715.643
0.9666666666666667,59511972.8874
1.0,58319088.8282
1.0333333333333334,57649498.2478
1.0666666666666667,57190913.1024
1.1,56988347.8848
1.1333333333333333,57044616.0008
1.1666666666666667,57227487.3778
1.2,57517268.1752
1.2333333333333334,57809862.3784
1.2666666666666666,58288141.3644
1.3,58760793.5388
1.3333333333333333,60094347.888
1.3666666666666667,61396954.7734
1.4,63023103.3258
1.4333333333333333,64269442.0952
1.4666666666666666,65678958.401
1.5,67040646.8082
1.5333333333333334,68886241.013
1.5666666666666667,70307010.942
1.6,71266382.3198
1.6333333333333333,71941599.7118
1.6666666666666667,73069775.4376
1.7,72667458.4082
1.7333333333333334,66379496.4452
1.7666666666666666,63824923.9788
1.8,62409780.8614
1.8333333333333333,59683590.6412
1.8666666666666667,58375356.9442
1.9,56467867.8118
1.9333333333333333,55862985.5648
1.9666666666666666,55983962.0142
2.0,54878293.5348
2.033333333333333,49271175.7754
2.066666666666667,35780894.9644
2.1,4211668.4826
2.1333333333333333,-16331820.669
2.1666666666666665,-30778659.452
2.2,-36264800.762
2.2333333333333334,-37539273.5894
2.2666666666666666,-37398603.2994
2.3,-37944404.0246
2.3333333333333335,-38729344.2428
2.3666666666666667,-38068193.8798
2.4,-37634929.3866
2.433333333333333,-37986605.1116
2.466666666666667,-37547713.8068
2.5,-41475228.3036
2.533333333333333,-44176097.8716
2.566666666666667,-57112137.74
2.6,-62297244.6294
2.6333333333333333,-74617148.6276
2.6666666666666665,-79298655.8788
2.7,-81417150.4462
2.7333333333333334,-83693195.7384
2.7666666666666666,-88385956.6128
2.8,-92186867.8486
2.8333333333333335,-87924558.0616
2.8666666666666667,-84832625.0874
2.9,-61422275.4256
2.933333333333333,-51811681.2128
2.966666666666667,-24254371.4018
3.0,-17187096.0322
3.033333333333333,-1699297.1032
3.066666666666667,3477369.5688
3.1,14615643.131
3.1333333333333333,19299963.788
3.1666666666666665,28356317.0582
3.2,32627067.0626
3.2333333333333334,38695583.3732
3.2666666666666666,42670925.7686
3.3,48429967.4412
3.3333333333333335,51837001.865
3.3666666666666667,55927693.8982
3.4,59244699.3364
3.433333333333333,62598279.05
3.466666666666667,66292280.8654
3.5,71089137.7544
3.533333333333333,75371141.382
3.566666666666667,78918846.0958
3.6,79228320.7338
3.6333333333333333,77725962.0366
3.6666666666666665,75177016.3818
3.7,74144496.4532
3.7333333333333334,73339862.3944
3.7666666666666666,73007880.51
3.8,73297661.3074
3.8333333333333335,73986945.7284
3.8666666666666667,74448344.2796
3.9,74591827.9754
3.933333333333333,74920996.454
3.966666666666667,75168576.1644
4.0,75407715.6574
4.033333333333333,76170148.6292
4.066666666666666,77405233.7754
4.1,78789429.429
4.133333333333334,79979500.0824
4.166666666666667,80803827.9818
4.2,81526873.2724
4.233333333333333,82719757.3316
4.266666666666667,83662248.2746
4.3,84171474.7244
4.333333333333333,82942016.3898
4.366666666666666,80519673.996
4.4,78342097.9068
4.433333333333334,76955088.8474
4.466666666666667,76043545.3682
4.5,75517438.4836
4.533333333333333,75559639.5706
4.566666666666666,75703123.2664
4.6,76111067.1074
4.633333333333334,76465556.2382
4.666666666666667,76594972.905
4.7,76820045.369
4.733333333333333,77081692.1084
4.766666666666667,77740029.0656
4.8,78381485.588
4.833333333333333,79011688.4872
4.866666666666666,79700972.9082
4.9,80772880.518
4.933333333333334,81836347.9104
4.966666666666667,82953270.013
5.0,84227742.8404
5.033333333333333,85240568.9284
5.066666666666666,85592244.6534
5.1,84126460.2316
5.133333333333334,81220212.0402
5.166666666666667,77883512.7614
5.2,75945076.1652
5.233333333333333,74946317.1062
5.266666666666667,74369568.9172
5.3,74071347.9024
5.333333333333333,73888476.5254
5.366666666666666,74178257.3228
5.4,74310487.3954
5.433333333333334,74358315.294
5.466666666666667,74487731.9608
5.5,74709991.019
5.533333333333333,74999771.8164
5.566666666666666,75492117.8314
5.6,76184215.6582
5.633333333333334,76986036.3112
5.666666666666667,78403992.8344
5.7,79684092.4734
5.733333333333333,80772880.518
5.766666666666667,81926376.896
5.8,83282438.4916
5.833333333333333,84556911.319
5.866666666666666,85631632.3346
5.9,86033949.364
5.933333333333334,85085831.6094
5.966666666666667,82750704.7954
6.0,79565929.4298
6.033333333333333,76715949.3544
6.066666666666666,74673416.7436
6.1,73539614.2062
6.133333333333334,72757487.3938
6.166666666666667,72684338.843
6.2,72830635.9446
6.233333333333333,73156991.0174
6.266666666666667,73576188.4816
6.3,73640896.815
6.333333333333333,73961625.0762
6.366666666666666,74299233.7722
6.4,74918183.0482
6.433333333333334,75486491.0198
6.466666666666667,76324885.9482
6.5,77436181.2392
6.533333333333333,78524969.2838
6.566666666666666,79622197.5458
6.6,80491539.938
6.633333333333334,81189264.5764
6.666666666666667,81504366.026
6.7,82204904.0702
6.733333333333333,82927949.3608
6.766666666666667,83442802.6222
6.8,84857945.7396
6.833333333333333,85862331.6102
6.866666666666666,85533163.1316
6.9,83102380.5204
6.933333333333334,79489967.4732
6.966666666666667,76308005.5134
7.0,74164190.2938
7.033333333333333,72870023.6258
7.066666666666666,71764355.1464
7.1,71536469.2766
7.133333333333334,71516775.436
7.166666666666667,71415492.8272
7.2,71134152.2472
7.233333333333333,70821864.2034
7.266666666666667,71753101.5232
7.3,73196378.6986
7.333333333333333,72639324.3502
7.366666666666666,71980987.393
7.4,73643710.2208
7.433333333333334,74988518.1932
7.466666666666667,76097000.0784
7.5,77644373.2684
7.533333333333333,80936058.0544
7.566666666666666,84748222.9134
7.6,87058029.0752
7.633333333333334,88321248.2794
7.666666666666667,89066800.8164
7.7,89832047.194
7.733333333333333,90625427.6296
7.766666666666667,91542597.9204
7.8,92186867.8486
7.833333333333333,91970235.602
7.866666666666666,89758898.6432
7.9,86548802.6254
7.933333333333334,84489389.5798
7.966666666666667,83122074.361
8.0,81996712.041
8.033333333333333,81298987.4026
8.066666666666666,80964192.1124
8.1,80829148.634
8.133333333333333,80924804.4312
8.166666666666666,81079541.7502
8.2,80919177.6196
8.233333333333333,81040154.069
8.266666666666667,80677224.7208
8.3,80708172.1846
8.333333333333334,81417150.4462
8.366666666666667,82562206.6068
8.4,83819798.9994
8.433333333333334,84410614.2174
8.466666666666667,85535976.5374
8.5,86368744.6542
8.533333333333333,87426585.235
8.566666666666666,88537880.526
8.6,89570400.4546
8.633333333333333,89300313.4978
8.666666666666666,87460346.1046
8.7,84585045.377
8.733333333333333,82460923.998
8.766666666666667,81335561.678
8.8,80601262.7642
8.833333333333334,80167998.271
8.866666666666667,79605317.111
8.9,79802255.517
8.933333333333334,79959806.2418
8.966666666666667,79523728.3428
9.0,79203000.0816
9.033333333333333,78735974.7188
9.066666666666666,76482436.673
9.1,74614335.2218
9.133333333333333,74743751.8886
9.166666666666666,74439904.0622
9.2,72929105.1476
9.233333333333333,72892530.8722
9.266666666666667,74107922.1778
9.3,74313300.8012
9.333333333333334,73162617.829
9.366666666666667,72507094.2776
9.4,72532414.9298
9.433333333333334,72476146.8138
9.466666666666667,72141351.5236
9.5,71125712.0298
9.533333333333333,66728358.7644
9.566666666666666,61745817.0926
9.6,59500719.2642
9.633333333333333,58282514.5528
9.666666666666666,57807048.9726
9.7,57944905.8568
9.733333333333333,58440065.2776
9.766666666666667,58800181.22
9.8,59210938.4668
9.833333333333334,59624509.1194
9.866666666666667,59517599.699
9.9,59295340.6408
9.933333333333334,59599188.4672
9.966666666666667,59655456.5832
