Time (s),PPGG
0.0,-58927307.222100005
0.03333333333333333,-56939284.1232
0.06666666666666667,-55876401.0393
0.1,-57995999.607
0.13333333333333333,-64488426.6456
0.16666666666666666,-66811556.0166
0.2,-67364584.15890001
0.23333333333333334,-66566907.8793
0.26666666666666666,-64521320.5128
0.3,-61458079.1298
0.3333333333333333,-56828267.3214
0.36666666666666664,-52698031.1211
0.4,-49636845.6048
0.43333333333333335,-46894319.427
0.4666666666666667,-45113938.8648
0.5,-43105357.0989
0.5333333333333333,-40566361.7244
0.5666666666666667,-38522830.2246
0.6,-36158583.519600004
0.6333333333333333,-33064504.1361
0.6666666666666666,-29877910.7511
0.7,-25367339.2113
0.7333333333333333,-20819762.0709
0.7666666666666667,-16917727.0743
0.8,-12499669.536
0.8333333333333334,-7415511.1869
0.8666666666666667,-3534034.8573000003
0.9,655821.4773
0.9333333333333333,4401610.6047
0.9666666666666667,7483354.788
1.0,10589769.3717
1.0333333333333334,13239781.548
1.0666666666666667,13618061.0208
1.1,13237725.6813
1.1333333333333333,5086214.2158
1.1666666666666667,-921028.2816
1.2,-2777475.9117
1.2333333333333334,-3133140.8508
1.2666666666666666,-3507308.5902
1.3,-4969029.8139
1.3333333333333333,-5540560.7565
1.3666666666666667,-5254795.2852
1.4,-5073879.0156000005
1.4333333333333333,-4529074.3401
1.4666666666666666,-3700560.06
1.5,-2401252.3056
1.5333333333333334,-775061.7459
1.5666666666666667,1210905.4863
1.6,3036515.1159
1.6333333333333333,1955129.2317000001
1.6666666666666667,2370414.3051
1.7,3334615.7874000003
1.7333333333333334,4714102.3431
1.7666666666666666,3873252.8628000002
1.8,4045945.6656
1.8333333333333333,2758973.1114
1.8666666666666667,3085855.9167
1.9,4159018.3341
1.9333333333333333,3408626.9886000003
1.9666666666666666,3881476.3296000003
2.0,2031196.2996
2.033333333333333,-682547.7444
2.066666666666667,-11932250.3268
2.1,-24824590.4025
2.1333333333333333,-27474602.5788
2.1666666666666665,-29528413.412100002
2.2,-30632413.830000002
2.2333333333333334,-31448592.909900002
2.2666666666666666,-31339631.9748
2.3,-31127877.7047
2.3333333333333335,-30850335.7002
2.3666666666666667,-30685866.3642
2.4,-30467944.494
2.433333333333333,-30237687.4236
2.466666666666667,-29980704.0861
2.5,-29189195.406600002
2.533333333333333,-28239384.9912
2.566666666666667,-27110714.1729
2.6,-26109507.09
2.6333333333333333,-25155584.9412
2.6666666666666665,-23938511.8548
2.7,-22713215.3016
2.7333333333333334,-21411851.6805
2.7666666666666666,-20472320.5986
2.8,-19534845.3834
2.8333333333333335,-18938644.040400002
2.8666666666666667,-20131046.7264
2.9,-29980704.0861
2.933333333333333,-36824684.3304
2.966666666666667,-40278540.3864
3.0,-41882116.4124
3.033333333333333,-43101245.3655
3.066666666666667,-43298608.5687
3.1,-43150586.1663
3.1333333333333333,-42776418.4269
3.1666666666666665,-42418697.6211
3.2,-42431032.8213
3.2333333333333334,-43224597.3675
3.2666666666666666,-43929759.6456
3.3,-44546519.655600004
3.3333333333333335,-44433446.9871
3.3666666666666667,-43759122.7095
3.4,-42626340.157800004
3.433333333333333,-41643635.8752
3.466666666666667,-40833624.3954
3.5,-39840640.779300004
3.533333333333333,-38831210.2296
3.566666666666667,-37704595.278
3.6,-36705444.0618
3.6333333333333333,-35926270.5825
3.6666666666666665,-35190270.3039
3.7,-34705085.7627
3.7333333333333334,-36711611.6619
3.7666666666666666,-44131234.5822
3.8,-49420979.6013
3.8333333333333335,-52099773.9114
3.8666666666666667,-50839527.6243
3.9,-50492086.152
3.933333333333333,-49990454.677200004
3.966666666666667,-49355191.866900004
4.0,-46462587.42
4.033333333333333,-46002073.2792
4.066666666666666,-46024687.8129
4.1,-46018520.2128
4.133333333333334,-45889000.610700004
4.166666666666667,-45934229.6781
4.2,-45788263.142400004
4.233333333333333,-42093870.6825
4.266666666666667,-40685601.993
4.3,-39106696.3674
4.333333333333333,-37875232.2141
4.366666666666666,-36758896.596
4.4,-35825533.1142
4.433333333333334,-34339141.490100004
4.466666666666667,-33218694.1386
4.5,-32129084.7876
4.533333333333333,-31650067.8465
4.566666666666666,-32758179.9978
4.6,-38261735.1537
4.633333333333334,-43074519.098400004
4.666666666666667,-45625849.6731
4.7,-46733961.8244
4.733333333333333,-47017671.429
4.766666666666667,-46865537.2932
4.8,-45981514.6122
4.833333333333333,-44277201.1179
4.866666666666666,-42285066.2856
4.9,-41012484.7983
4.933333333333334,-40173691.1847
4.966666666666667,-39552819.4413
5.0,-39096417.0339
5.033333333333333,-38306964.2211
5.066666666666666,-36758896.596
5.1,-34495387.3593
5.133333333333334,-29341329.5424
5.166666666666667,-13741413.0228
5.2,-5265074.6187
5.233333333333333,-2288179.6371
5.266666666666667,-4052113.2657
5.3,-5742035.6931
5.333333333333333,-7325053.0521
5.366666666666666,-14062128.228
5.4,-19769214.1872
5.433333333333334,-29758670.4825
5.466666666666667,-35946829.2495
5.5,-43132083.366000004
5.533333333333333,-44651368.8573
5.566666666666666,-44782944.3261
5.6,-44731547.6586
5.633333333333334,-45167391.399000004
5.666666666666667,-45564173.6721
5.7,-45895168.2108
5.733333333333333,-45963011.8119
5.766666666666667,-45644352.473400004
5.8,-45237290.8668
5.833333333333333,-44838452.727
5.866666666666666,-43769402.043
5.9,-40149020.7843
5.933333333333334,-36869913.3978
5.966666666666667,-33366716.541
6.0,-30116391.2883
6.033333333333333,-28634111.3976
6.066666666666666,-27223786.8414
6.1,-26280144.026100002
6.133333333333334,-25357059.8778
6.166666666666667,-24978780.405
6.2,-26199965.2248
6.233333333333333,-29479072.6113
6.266666666666667,-31448592.909900002
6.3,-29530469.2788
6.333333333333333,-25513305.747
6.366666666666666,-23825439.186300002
6.4,-23068880.2407
6.433333333333334,-21021237.0075
6.466666666666667,-19358040.8472
6.5,-18739224.9705
6.533333333333333,-19199739.1113
6.566666666666666,-19541012.9835
6.6,-18994152.4413
6.633333333333334,-17419358.5491
6.666666666666667,-15406665.049800001
6.7,-13110261.9459
6.733333333333333,-10252607.232900001
6.766666666666667,-7579980.5229
6.8,-5733812.2263
6.833333333333333,-5766706.0935
6.866666666666666,-8856673.7436
6.9,-17341235.6145
6.933333333333334,-25669551.6162
6.966666666666667,-34589957.2275
7.0,-46102810.7475
7.033333333333333,-58427731.614
7.066666666666666,-61137363.9246
7.1,-55979194.3743
7.133333333333334,-53756802.4716
7.166666666666667,-52513003.1181
7.2,-48954297.8604
7.233333333333333,-46662006.4899
7.266666666666667,-43347949.369500004
7.3,-40212752.652
7.333333333333333,-37455835.4073
7.366666666666666,-31989285.852
7.4,-27832323.384600002
7.433333333333334,-26570021.2308
7.466666666666667,-27647295.3816
7.5,-30186290.7561
7.533333333333333,-31000413.9693
7.566666666666666,-31076481.0372
7.6,-29684659.2813
7.633333333333334,-23325863.5782
7.666666666666667,-18245816.9625
7.7,-14043625.4277
7.733333333333333,-11636205.522
7.766666666666667,-8714818.941300001
7.8,-3252381.1194
7.833333333333333,9076651.4805
7.866666666666666,34842828.8316
7.9,66749880.0156
7.933333333333334,67364584.15890001
7.966666666666667,50080912.812
8.0,11588920.5879
8.033333333333333,-7672494.5244
8.066666666666666,-16442821.8666
8.1,-27464323.2453
8.133333333333333,-29183027.8065
8.166666666666666,-33078895.203
8.2,-37048773.8007
8.233333333333333,-39289668.5037
8.266666666666667,-39610383.7089
8.3,-40679434.3929
8.333333333333334,-40268261.0529
8.366666666666667,-40771948.3944
8.4,-41351702.8038
8.433333333333334,-42188440.5507
8.466666666666667,-41376373.2042
8.5,-40654763.9925
8.533333333333333,-39225936.636
8.566666666666666,-37017935.8002
8.6,-34853108.1651
8.633333333333333,-31325240.9079
8.666666666666666,-28852033.2678
8.7,-28812971.8005
8.733333333333333,-29680547.5479
8.766666666666667,-30030044.8869
8.8,-30017709.6867
8.833333333333334,-29781285.016200002
8.866666666666667,-30237687.4236
8.9,-31228615.173
8.933333333333334,-30946961.4351
8.966666666666667,-31880324.9169
9.0,-33777889.881
9.033333333333333,-36477242.8581
9.066666666666666,-38370696.0888
9.1,-38631791.1597
9.133333333333333,-38029422.2166
9.166666666666666,-36608818.3269
9.2,-36501913.2585
9.233333333333333,-37112505.6684
9.266666666666667,-37570963.9425
9.3,-38393310.6225
9.333333333333334,-38709914.0943
9.366666666666667,-38214450.2196
9.4,-38068483.6839
9.433333333333334,-37681980.7443
9.466666666666667,-37213243.136700004
9.5,-37589466.7428
9.533333333333333,-39651501.0429
9.566666666666666,-43329446.5692
9.6,-46988889.2952
9.633333333333333,-48652085.4555
9.666666666666666,-49061202.9288
9.7,-49437426.5349
9.733333333333333,-47268487.1664
9.766666666666667,-37213243.136700004
9.8,-30073218.0876
9.833333333333334,-29061731.6712
9.866666666666667,-29468793.2778
9.9,-31902939.450600002
9.933333333333334,-35249890.4382
9.966666666666667,-35436974.307900004
