Time (s),PPGG
0.0,-515452075.83100003
0.03333333333333333,-515040401.4875
0.06666666666666667,-511729107.855
0.1,-496622449.337
0.13333333333333333,-487118141.6675
0.16666666666666666,-465818469.1125
0.2,-449781068.6005
0.23333333333333334,-422485269.738
0.26666666666666666,-401847855.9095
0.3,-373209640.7095
0.3333333333333333,-340794760.88
0.36666666666666664,-310456151.6525
0.4,-274014022.8105
0.43333333333333335,-251443529.456
0.4666666666666667,-222626325.411
0.5,-196350762.965
0.5333333333333333,-167855738.841
0.5666666666666667,-134653308.0935
0.6,-101379281.808
0.6333333333333333,-82657048.621
0.6666666666666666,-60695117.3395
0.7,-64060107.6255
0.7333333333333333,-133257195.1025
0.7666666666666667,-200234820.9015
0.8,-259766510.7485
0.8333333333333334,-287939354.9515
0.8666666666666667,-300504371.8705
0.9,-306249913.795
0.9333333333333333,-304227339.8465
0.9666666666666667,-297855336.9645
1.0,-292342480.5385
1.0333333333333334,-293380615.8395
1.0666666666666667,-290480996.5505
1.1,-282748678.4465
1.1333333333333333,-262648231.153
1.1666666666666667,-242619379.3975
1.2,-217954716.5565
1.2333333333333334,-187186534.101
1.2666666666666666,-163953782.02
1.3,-124433045.044
1.3333333333333333,-99857876.6255
1.3666666666666667,-66369063.726
1.4,-50098977.7155
1.4333333333333333,-20870099.327
1.4666666666666666,7642823.6815
1.5,46358110.855
1.5333333333333334,86093634.44500001
1.5666666666666667,106534160.544
1.6,133615172.7925
1.6333333333333333,135405061.2425
1.6666666666666667,107464902.538
1.7,52891203.6975
1.7333333333333334,18883323.1475
1.7666666666666666,-7284845.9915000005
1.8,-19116008.646
1.8333333333333333,-17057636.9285
1.8666666666666667,-12242836.998
1.9,12869297.9555
1.9333333333333333,29568957.194000002
1.9666666666666666,41131636.581
2.0,44747211.25
2.033333333333333,47700527.1925
2.066666666666667,61303679.4125
2.1,80920856.8245
2.1333333333333333,114749748.52950001
2.1666666666666665,152301608.2105
2.2,183821543.815
2.2333333333333334,208020835.659
2.2666666666666666,236032589.9015
2.3,255166497.432
2.3333333333333335,284091094.784
2.3666666666666667,303350294.506
2.4,322824280.842
2.433333333333333,352518530.2275
2.466666666666667,369880448.1925
2.5,403369261.092
2.533333333333333,415826884.704
2.566666666666667,408398847.6365
2.6,363508445.3105
2.6333333333333333,313677950.8625
2.6666666666666665,272617909.8195
2.7,234421690.2965
2.7333333333333334,230466036.822
2.7666666666666666,226259798.9645
2.8,235799904.403
2.8333333333333335,241813929.595
2.8666666666666667,249975820.92700002
2.9,249635742.12150002
2.933333333333333,252427968.1035
2.966666666666667,263274692.1105
3.0,276680956.601
3.033333333333333,302920721.278
3.066666666666667,317365121.0695
3.1,330842981.098
3.1333333333333333,341385424.0685
3.1666666666666665,374140382.7035
3.2,404801171.852
3.2333333333333334,426208237.714
3.2666666666666666,448241764.5335
3.3,472369460.8395
3.3333333333333335,502385890.146
3.3666666666666667,521072325.564
3.4,545038931.9095
3.433333333333333,561559602.303
3.466666666666667,541888728.2375
3.5,499736855.24
3.533333333333333,445682224.05
3.566666666666667,411728040.1535
3.6,395851729.602
3.6333333333333333,405194947.311
3.6666666666666665,408738926.44200003
3.7,426297732.1365
3.7333333333333334,424328854.8415
3.7666666666666666,428570890.468
3.8,430163891.1885
3.8333333333333335,432830824.97900003
3.8666666666666667,440831626.3505
3.9,444912572.0165
3.933333333333333,456242565.90500003
3.966666666666667,461469040.179
4.0,479546913.524
4.033333333333333,494957853.07850003
4.066666666666666,510887860.2835
4.1,526424092.0295
4.133333333333334,539400783.292
4.166666666666667,563958052.826
4.2,571940955.313
4.233333333333333,586492748.4115
4.266666666666667,563367389.6375
4.3,517062975.436
4.333333333333333,456618442.4795
4.366666666666666,413428434.181
4.4,393811256.769
4.433333333333334,384557533.4825
4.466666666666667,392594132.623
4.5,394276627.766
4.533333333333333,406877442.454
4.566666666666666,409007409.7095
4.6,406322577.0345
4.633333333333334,409132701.901
4.666666666666667,417527278.7315
4.7,431792689.678
4.733333333333333,425545978.9875
4.766666666666667,439954581.01
4.8,456457352.519
4.833333333333333,477936013.919
4.866666666666666,496103381.6865
4.9,519515122.6125
4.933333333333334,511890197.8155
4.966666666666667,471313426.654
5.0,407056431.299
5.033333333333333,357297532.389
5.066666666666666,344732515.47
5.1,335389297.761
5.133333333333334,338611096.971
5.166666666666667,330896677.7515
5.2,332525476.241
5.233333333333333,335908365.4115
5.266666666666667,336946500.7125
5.3,345770650.771
5.333333333333333,349905293.0905
5.366666666666666,363955917.423
5.4,371670336.6425
5.433333333333334,387582444.963
5.466666666666667,403977823.165
5.5,438988041.247
5.533333333333333,457710274.434
5.566666666666666,433940555.818
5.6,381586318.6555
5.633333333333334,310348758.3455
5.666666666666667,268340076.424
5.7,234475386.95
5.733333333333333,231468374.354
5.766666666666667,233222465.035
5.8,241867626.2485
5.833333333333333,242154008.4005
5.866666666666666,238860613.6525
5.9,254790620.8575
5.933333333333334,267266143.354
5.966666666666667,283393038.2885
6.0,294919919.9065
6.033333333333333,313391568.7105
6.066666666666666,316022704.732
6.1,315521535.966
6.133333333333334,296387628.4355
6.166666666666667,248221730.246
6.2,194596672.284
6.233333333333333,143763840.304
6.266666666666667,113389433.3075
6.3,84715420.33850001
6.333333333333333,68695918.711
6.366666666666666,56918452.71
6.4,63863219.896
6.433333333333334,76947304.4655
6.466666666666667,88187803.9315
6.5,98354370.3275
6.533333333333333,90980029.9135
6.566666666666666,96546582.993
6.6,99553595.589
6.633333333333334,106766846.0425
6.666666666666667,89834501.3055
6.7,73474920.8725
6.733333333333333,30589193.6105
6.766666666666667,-89995591.266
6.8,-204172575.4915
6.833333333333333,-308827353.163
6.866666666666666,-371903022.141
6.9,-397301539.2465
6.933333333333334,-396907763.7875
6.966666666666667,-385327185.516
7.0,-368734919.5845
7.033333333333333,-355883520.5135
7.066666666666666,-363884321.885
7.1,-379348958.093
7.133333333333334,-402796496.788
7.166666666666667,-396925662.672
7.2,-383465701.528
7.233333333333333,-362470310.0095
7.266666666666667,-352858609.033
7.3,-340168299.9225
7.333333333333333,-327853867.3865
7.366666666666666,-324148798.295
7.4,-303225002.3145
7.433333333333334,-323289651.839
7.466666666666667,-360483533.83
7.5,-424114068.2275
7.533333333333333,-486545377.3635
7.566666666666666,-548063843.39
7.6,-584076399.004
7.633333333333334,-586492748.4115
7.666666666666667,-581302071.9065
7.7,-560073994.8895
7.733333333333333,-563313692.984
7.766666666666667,-565157278.0875
7.8,-563868558.4035
7.833333333333333,-552502766.746
7.866666666666666,-533547848.0605
7.9,-513626389.612
7.933333333333334,-483556263.652
7.966666666666667,-466570222.2615
8.0,-444679886.518
8.033333333333333,-429394239.15500003
8.066666666666666,-406716352.4935
8.1,-386580107.431
8.133333333333333,-354487407.5225
8.166666666666666,-330180722.3715
8.2,-311064713.7255
8.233333333333333,-284431173.5895
8.266666666666667,-272617909.8195
8.3,-257206970.26500002
8.333333333333334,-294239762.2955
8.366666666666667,-343264806.941
8.4,-396746673.827
8.433333333333334,-441314896.232
8.466666666666667,-469684628.1645
8.5,-477864418.381
8.533333333333333,-458891600.811
8.566666666666666,-444429302.135
8.6,-438039400.3685
8.633333333333333,-441780267.22900003
8.666666666666666,-441941357.1895
8.7,-438218389.2135
8.733333333333333,-414717153.865
8.766666666666667,-375321709.0805
8.8,-337053894.0195
8.833333333333334,-300862349.5605
8.866666666666667,-279186800.431
8.9,-250691776.307
8.933333333333334,-244051290.1575
8.966666666666667,-232989779.5365
9.0,-219297132.894
9.033333333333333,-189942962.314
9.066666666666666,-168965469.68
9.1,-160624589.503
9.133333333333333,-116002670.4445
9.166666666666666,-118025244.393
9.2,-158190341.211
9.233333333333333,-218455885.3225
9.266666666666667,-266818671.2415
9.3,-290319906.59
9.333333333333334,-305104385.187
9.366666666666667,-306930071.406
9.4,-299215652.1865
9.433333333333334,-290230412.1675
9.466666666666667,-300200090.834
9.5,-298338606.846
9.533333333333333,-297497359.2745
9.566666666666666,-282301206.334
9.6,-269145526.2265
9.633333333333333,-259694915.2105
9.666666666666666,-229571092.597
9.7,-208718892.1545
9.733333333333333,-186506376.49
9.766666666666667,-165779468.239
9.8,-137033859.732
9.833333333333334,-115734187.177
9.866666666666667,-93539570.397
9.9,-85037600.2595
9.933333333333334,-102596405.954
9.966666666666667,-141150603.167
