Time (s),PPGG
0.0,380393183.5155
0.03333333333333333,399779921.49120003
0.06666666666666667,430141693.4172
0.1,464833750.8474
0.13333333333333333,491686498.3131
0.16666666666666666,537278929.5987
0.2,591706138.7808
0.23333333333333334,635432067.6939
0.26666666666666666,638667338.4729
0.3,647726096.6541
0.3333333333333333,663056302.8069
0.36666666666666664,666366233.6808
0.4,626124442.5297
0.43333333333333335,569581863.9921
0.4666666666666667,475808784.7977
0.5,385544730.0636
0.5333333333333333,320067826.8363
0.5666666666666667,276764971.7943
0.6,255710825.0325
0.6333333333333333,251903160.1926
0.6666666666666666,251305879.4334
0.7,248045721.9561
0.7333333333333333,270767277.504
0.7666666666666667,286993404.7956
0.8,302099630.6637
0.8333333333333334,321411708.5445
0.8666666666666667,357820948.1574
0.9,384051528.1656
0.9333333333333333,399655487.9997
0.9666666666666667,423745811.9541
1.0,456272726.6322
1.0333333333333334,481358518.5186
1.0666666666666667,480387937.2849
1.1,458636962.9707
1.1333333333333333,395424749.2887
1.1666666666666667,343063136.0655
1.2,318923038.7145
1.2333333333333334,289954921.8933
1.2666666666666666,267556893.4233
1.3,264719809.8171
1.3333333333333333,262081819.7973
1.3666666666666667,257900854.4829
1.4,257054706.7407
1.4333333333333333,265142883.6882
1.4666666666666666,266362331.9049
1.5,261758292.7194
1.5333333333333334,265989031.4304
1.5666666666666667,281369010.9798
1.6,300805522.3521
1.6333333333333333,319097245.6026
1.6666666666666667,344183037.489
1.7,387237025.548
1.7333333333333334,394802581.8312
1.7666666666666666,366083331.993
1.8,332287195.7016
1.8333333333333333,300979729.2402
1.8666666666666667,274749149.232
1.9,258075061.371
1.9333333333333333,262679100.5565
1.9666666666666666,271090804.5819
2.0,282289818.8169
2.033333333333333,293563493.1468
2.066666666666667,312452497.1565
2.1,348861736.7694
2.1333333333333333,382309459.2846
2.1666666666666665,406623763.5237
2.2,436238934.5007
2.2333333333333334,497709079.3017
2.2666666666666666,536457668.5548
2.3,580059163.9764
2.3333333333333335,627542984.3328
2.3666666666666667,658327830.1299
2.4,640533840.8454
2.433333333333333,586878119.3106
2.466666666666667,510575502.3228
2.5,409535507.2248
2.533333333333333,360110524.401
2.566666666666667,315737541.3321
2.6,298491059.4102
2.6333333333333333,296649443.736
2.6666666666666665,302248950.8535
2.7,319744299.7584
2.7333333333333334,342640062.1944
2.7666666666666666,370961124.8598
2.8,413666699.1426
2.8333333333333335,468193455.1179
2.8666666666666667,530783501.3424
2.9,584762749.9551
2.933333333333333,643644678.1329
2.966666666666667,712058211.7596
3.0,778032848.9529
3.033333333333333,809116335.1296
3.066666666666667,815462443.1961
3.1,783582582.6738
3.1333333333333333,714447334.7964
3.1666666666666665,636651515.9106
3.2,583991262.3078
3.2333333333333334,555645312.9441
3.2666666666666666,534367185.8976
3.3,525159107.5266
3.3333333333333335,533446378.0605
3.3666666666666667,550045805.8266
3.4,551912308.1991
3.433333333333333,564131677.0644
3.466666666666667,588222001.0188
3.5,611939024.4987
3.533333333333333,607509192.2013
3.566666666666667,630504501.4305
3.6,663106076.2035
3.6333333333333333,675101464.7841
3.6666666666666665,712257305.346
3.7,741001441.8825
3.7333333333333334,746053441.6374
3.7666666666666666,709644202.0245
3.8,648074510.4303
3.8333333333333335,579362336.424
3.8666666666666667,502487325.3753
3.9,441017180.5743
3.933333333333333,395374975.8921
3.966666666666667,385569616.7619
4.0,387461005.8327
4.033333333333333,378302700.8583
4.066666666666666,362897834.6106
4.1,352146780.945
4.133333333333334,354386583.792
4.166666666666667,356676160.0356
4.2,356427293.0526
4.233333333333333,367800514.1757
4.266666666666667,397888532.4204
4.3,426383801.9739
4.333333333333333,452863248.9651
4.366666666666666,474539563.1844
4.4,480213730.3968
4.433333333333334,448756943.7456
4.466666666666667,395076335.5125
4.5,323278210.917
4.533333333333333,261310332.15
4.566666666666666,213876285.1902
4.6,203448758.6025
4.633333333333334,208152344.5812
4.666666666666667,228211023.411
4.7,247149800.8173
4.733333333333333,276242351.13
4.766666666666667,323402644.4085
4.8,359538130.3401
4.833333333333333,411874856.865
4.866666666666666,464759090.7525
4.9,501989591.4093
4.933333333333334,532774437.2064
4.966666666666667,562588701.7698
5.0,597007005.5187
5.033333333333333,609251261.0823
5.066666666666666,588545528.0967
5.1,539692939.3338
5.133333333333334,462170874.1293
5.166666666666667,393807113.8992
5.2,340101618.9678
5.233333333333333,312502270.5531
5.266666666666667,280970823.807
5.3,279104321.4345
5.333333333333333,286744537.8126
5.366666666666666,280398429.7461
5.4,282264932.1186
5.433333333333334,300830409.0504
5.466666666666667,345004298.5329
5.5,387759646.2123
5.533333333333333,415906501.9896
5.566666666666666,463017021.8715
5.6,513089058.8511
5.633333333333334,568611282.7584
5.666666666666667,617165231.1417
5.7,652952303.2971
5.733333333333333,648895771.4742
5.766666666666667,597280759.2
5.8,535611520.8126
5.833333333333333,477998814.2481
5.866666666666666,418818245.6907
5.9,373872868.5609
5.933333333333334,363320908.4817
5.966666666666667,369890996.8329
6.0,379646582.5665
6.033333333333333,382856966.6472
6.066666666666666,391542424.3539
6.1,410580748.5534
6.133333333333334,431261594.8407
6.166666666666667,454008037.0869
6.2,487829060.0766
6.233333333333333,549249431.481
6.266666666666667,610868896.4718
6.3,665694292.8267
6.333333333333333,707752812.9537
6.366666666666666,745754801.2578
6.4,739209599.6049
6.433333333333334,697275512.9694
6.466666666666667,640956914.7165
6.5,538946338.3848
6.533333333333333,464883524.244
6.566666666666666,397565005.3425
6.6,354734997.5682
6.633333333333334,330047392.8546
6.666666666666667,322133422.7952
6.7,331615254.8475
6.733333333333333,336542821.1109
6.766666666666667,347293874.7765
6.8,356526839.8458
6.833333333333333,375341183.7606
6.866666666666666,382035705.6033
6.9,402268591.3212
6.933333333333334,419664393.4329
6.966666666666667,432804570.1353
7.0,449752411.6776
7.033333333333333,461648253.465
7.066666666666666,463738736.1222
7.1,436562461.5786
7.133333333333334,381189557.8611
7.166666666666667,315986408.3151
7.2,260065997.235
7.233333333333333,197899024.8816
7.266666666666667,170473883.355
7.3,168084760.3182
7.333333333333333,156288465.324
7.366666666666666,150688958.2065
7.4,147055500.2547
7.433333333333334,157806553.9203
7.466666666666667,149071322.817
7.5,168831361.2672
7.533333333333333,182071084.7628
7.566666666666666,202951024.6365
7.6,227912383.0314
7.633333333333334,265864597.9389
7.666666666666667,317753363.8944
7.7,340126505.6661
7.733333333333333,365710031.51850003
7.766666666666667,373400021.2932
7.8,324622092.6252
7.833333333333333,279502508.6073
7.866666666666666,250111317.915
7.9,220346826.7482
7.933333333333334,186600463.8534
7.966666666666667,178537173.6042
8.0,198471418.9425
8.033333333333333,209396679.4962
8.066666666666666,209098039.1166
8.1,229057171.1532
8.133333333333333,257378233.8186
8.166666666666666,270070449.9516
8.2,-75531129.3405
8.233333333333333,-221790255.2496
8.266666666666667,-262405346.8752
8.3,-299884714.515
8.333333333333334,-304588300.4937
8.366666666666667,-301228596.2232
8.4,-307027196.9271
8.433333333333334,-337040555.0769
8.466666666666667,-422153063.2629
8.5,-507613985.2251
8.533333333333333,-551937194.8974
8.566666666666666,-597007005.5187
8.6,-656809741.5336
8.633333333333333,-667834548.8805
8.666666666666666,-656660421.3438
8.7,-649468165.5351
8.733333333333333,-665196558.8607
8.766666666666667,-661065366.9429
8.8,-639115299.0423
8.833333333333334,-627169683.8583
8.866666666666667,-618334905.9618
8.9,-602830492.9209
8.933333333333334,-563733489.8916
8.966666666666667,-543376170.6822
9.0,-507190911.354
9.033333333333333,-473494321.8558
9.066666666666666,-472299760.3374
9.1,-492159345.5808
9.133333333333333,-549996032.43
9.166666666666666,-615522709.0539
9.2,-693318527.9397
9.233333333333333,-747845283.915
9.266666666666667,-785100671.2701
9.3,-800331330.6297
9.333333333333334,-805657084.0659
9.366666666666667,-800206897.1382
9.4,-803317734.4257
9.433333333333334,-815462443.1961
9.466666666666667,-790774838.4825
9.5,-754241165.3781
9.533333333333333,-738413225.2593
9.566666666666666,-714820635.2709
9.6,-682343493.9894
9.633333333333333,-657158155.3098
9.666666666666666,-635730708.0735
9.7,-607509192.2013
9.733333333333333,-588222001.0188
9.766666666666667,-559652071.3704
9.8,-567391834.5417
9.833333333333334,-582970907.6775
9.866666666666667,-594344128.8006
9.9,-620773802.3952
9.933333333333334,-638791771.9644
9.966666666666667,-661115140.3395
