Time (s),PPGG
0.0,-315083910.22709996
0.03333333333333333,-284034197.2194
0.06666666666666667,-261167607.70799997
0.1,-244522499.86769998
0.13333333333333333,-231781443.89519998
0.16666666666666666,-218376891.42299998
0.2,-204116524.6251
0.23333333333333334,-186019417.19849998
0.26666666666666666,-169970494.61879998
0.3,-165499105.1643
0.3333333333333333,-152229175.17029998
0.36666666666666664,-137863033.56809998
0.4,-125227752.39989999
0.43333333333333335,-118563939.72899999
0.4666666666666667,-116131119.23009999
0.5,-115958033.18669999
0.5333333333333333,-115044523.51319999
0.5666666666666667,-111582802.6452
0.6,-106255598.865
0.6333333333333333,-98659044.73799999
0.6666666666666666,-92264477.0235
0.7,-85667975.59169999
0.7333333333333333,-80927341.18079999
0.7666666666666667,-78109885.0299
0.8,-69340192.1643
0.8333333333333334,-58916565.9951
0.8666666666666667,-46867854.1962
0.9,-44050398.0453
0.9333333333333333,-33280599.7893
0.9666666666666667,-11971784.668499999
1.0,4644475.4979
1.0333333333333334,14875783.8411
1.0666666666666667,20924179.468799997
1.1,26116760.7708
1.1333333333333333,26260999.1403
1.1666666666666667,22405026.729
1.2,22097318.207399998
1.2333333333333334,23501238.337199997
1.2666666666666666,29357316.138899997
1.3,36174983.070599996
1.3333333333333333,40646372.5251
1.3666666666666667,49819932.82529999
1.4,59435824.1253
1.4333333333333333,66590047.2525
1.4666666666666666,71465304.1416
1.5,78542600.13839999
1.5333333333333334,84869856.61379999
1.5666666666666667,87927710.0472
1.6,93543390.56639999
1.6333333333333333,94562675.04419999
1.6666666666666667,89398941.4161
1.7,81735076.05
1.7333333333333334,72773065.3584
1.7666666666666666,66753517.404599994
1.8,62522525.232599996
1.8333333333333333,57829970.27819999
1.8666666666666667,56656831.53959999
1.9,56599136.1918
1.9333333333333333,57426102.8436
1.9666666666666666,58166526.473699994
2.0,59724300.8643
2.033333333333333,60214711.320599996
2.066666666666667,64926498.0576
2.1,70936430.12009999
2.1333333333333333,78013726.1169
2.1666666666666665,86119922.48279999
2.2,94908847.131
2.2333333333333334,100178355.5634
2.2666666666666666,103428526.8228
2.3,99351388.9116
2.3333333333333335,89110464.67709999
2.3666666666666667,77494467.9867
2.4,65589994.557299994
2.433333333333333,54349017.6276
2.466666666666667,43983086.8062
2.5,37703909.7873
2.533333333333333,32251699.420199998
2.566666666666667,27193740.596399996
2.6,22587728.6637
2.6333333333333333,19693345.3824
2.6666666666666665,16231624.5144
2.7,11760235.059899999
2.7333333333333334,7269613.822799999
2.7666666666666666,8433136.6701
2.8,10962116.081999999
2.8333333333333335,17741319.4485
2.8666666666666667,29251541.334599998
2.9,34867221.8538
2.933333333333333,35828810.983799994
2.966666666666667,34184493.571499996
3.0,25049396.836499996
3.033333333333333,15183492.362699999
3.066666666666667,9000474.2568
3.1,2355893.3685
3.1333333333333333,-1903946.4774
3.1666666666666665,-4105985.5851
3.2,-5125270.062899999
3.2333333333333334,-3827124.7373999995
3.2666666666666666,471178.6737
3.3,5769534.779999999
3.3333333333333335,9231255.648
3.3666666666666667,8990858.3655
3.4,12702592.4073
3.433333333333333,18318272.9265
3.466666666666667,24251277.858599998
3.5,33011354.8329
3.533333333333333,41954133.7419
3.566666666666667,56224116.431099996
3.6,64012988.3841
3.6333333333333333,67061225.926199995
3.6666666666666665,67878576.6867
3.7,67859344.9041
3.7333333333333334,69349808.0556
3.7666666666666666,68176669.317
3.8,69763291.38149999
3.8333333333333335,72349966.14119999
3.8666666666666667,76504031.1828
3.9,80658096.2244
3.933333333333333,85302571.7223
3.966666666666667,90908636.3502
4.0,97524369.56459999
4.033333333333333,108823041.8421
4.066666666666666,120804442.4019
4.1,131843485.6143
4.133333333333334,140026609.1106
4.166666666666667,151469519.75759998
4.2,163575926.90429997
4.233333333333333,172797566.66099998
4.266666666666667,179672928.9405
4.3,180922994.80949998
4.333333333333333,178076690.9847
4.366666666666666,172826414.3349
4.4,170547448.0968
4.433333333333334,174191870.89949998
4.466666666666667,179682544.83179998
4.5,185471311.3944
4.533333333333333,186298278.04619998
4.566666666666666,181451868.831
4.6,178874809.9626
4.633333333333334,171201328.7052
4.666666666666667,153623479.40879998
4.7,133910902.24379998
4.733333333333333,111294325.90619999
4.766666666666667,95562727.7394
4.8,82975526.02769999
4.833333333333333,68542073.1864
4.866666666666666,47175562.7178
4.9,21645371.316299997
4.933333333333334,-12356420.3205
4.966666666666667,-49521840.19499999
5.0,-71744164.9893
5.033333333333333,-95399257.58729999
5.066666666666666,-119429369.946
5.1,-133680120.8526
5.133333333333334,-153556168.1697
5.166666666666667,-168393488.44559997
5.2,-178211313.46289998
5.233333333333333,-174518811.20369998
5.266666666666667,-163277834.274
5.3,-141238211.41439998
5.333333333333333,-120025555.2066
5.366666666666666,-96899336.6301
5.4,-78850308.66
5.433333333333334,-59301201.647099994
5.466666666666667,-45444702.2838
5.5,-39415538.4387
5.533333333333333,-31126640.1381
5.566666666666666,-30078507.986399997
5.6,-30818931.616499998
5.633333333333334,-19472179.8825
5.666666666666667,-2086648.4120999998
5.7,13981505.950199999
5.733333333333333,23155066.2504
5.766666666666667,30992017.6599
5.8,32088229.268099997
5.833333333333333,33876785.049899995
5.866666666666666,34386427.2888
5.9,32261315.311499998
5.933333333333334,27664919.270099998
5.966666666666667,23433927.0981
6.0,13164155.1897
6.033333333333333,3875204.1939
6.066666666666666,-1384688.3472
6.1,-2019337.173
6.133333333333334,-5250276.6498
6.166666666666667,-15164260.580099998
6.2,-22933900.750499997
6.233333333333333,-27232204.161599997
6.266666666666667,-26030217.7491
6.3,-22789662.380999997
6.333333333333333,-17077822.948799998
6.366666666666666,-7548474.670499999
6.4,2413588.7163
6.433333333333334,11808314.5164
6.466666666666667,19116391.9044
6.5,26405237.5098
6.533333333333333,32972891.267699998
6.566666666666666,38242399.7001
6.6,48262158.4347
6.633333333333334,60483956.276999995
6.666666666666667,76648269.55229999
6.7,85312187.6136
6.733333333333333,102697719.08399999
6.766666666666667,115640708.77379999
6.8,120939064.8801
6.833333333333333,121554481.9233
6.866666666666666,127439407.39889999
6.9,133285869.30929999
6.933333333333334,134478239.83049998
6.966666666666667,136661047.15559998
7.0,143421018.7395
7.033333333333333,152008009.6704
7.066666666666666,160777702.53599998
7.1,170691686.46629998
7.133333333333334,177451658.0502
7.166666666666667,184182781.96019998
7.2,194567944.56419998
7.233333333333333,206203173.03719997
7.266666666666667,218434586.7708
7.3,227213895.52769998
7.333333333333333,241118474.3475
7.366666666666666,249897783.10439998
7.4,254619185.7327
7.433333333333334,255523079.51489997
7.466666666666667,254888430.68909997
7.5,257984747.68769997
7.533333333333333,262629223.18559998
7.566666666666666,269735366.8563
7.6,271321988.9208
7.633333333333334,272177803.24649996
7.666666666666667,271456611.399
7.7,268706466.48719996
7.733333333333333,266802520.0098
7.766666666666667,266215950.64049998
7.8,270956585.0514
7.833333333333333,277831947.33089995
7.866666666666666,287678620.0221
7.9,290284526.56439996
7.933333333333334,300967781.7987
7.966666666666667,307766216.9478
8.0,313362665.68439996
8.033333333333333,314593499.7708
8.066666666666666,309708626.99039996
8.1,303660231.3627
8.133333333333333,292053850.5636
8.166666666666666,281591760.82919997
8.2,269119949.8131
8.233333333333333,261494548.01219997
8.266666666666667,257196244.60109997
8.3,254042232.25469998
8.333333333333334,252782550.4944
8.366666666666667,250830524.5605
8.4,250936299.36479998
8.433333333333334,249147743.58299997
8.466666666666667,250397809.452
8.5,249359293.1916
8.533333333333333,247839982.36619997
8.566666666666666,244810976.60669997
8.6,246224512.6278
8.633333333333333,253417199.3202
8.666666666666666,252801782.27699998
8.7,243262818.10739997
8.733333333333333,232743033.02519998
8.766666666666667,225329180.8329
8.8,213847806.62069997
8.833333333333334,203414564.56019998
8.866666666666667,198548923.56239998
8.9,201674088.2349
8.933333333333334,204116524.6251
8.966666666666667,203837663.7774
9.0,203799200.2122
9.033333333333333,208847543.1447
9.066666666666666,215751753.09809998
9.1,221569367.33459997
9.133333333333333,223704095.20319998
9.166666666666666,226560014.9193
9.2,236252833.34969997
9.233333333333333,244137864.21569997
9.266666666666667,243916698.7158
9.3,240685759.239
9.333333333333334,240397282.49999997
9.366666666666667,237454819.7622
9.4,231944914.04729998
9.433333333333334,225386876.18069997
9.466666666666667,221069340.987
9.5,220030824.7266
9.533333333333333,226040756.7891
9.566666666666666,231117947.39549997
9.6,237647137.58819997
9.633333333333333,242733944.08589998
9.666666666666666,249859319.53919998
9.7,256109648.88419998
9.733333333333333,262167660.40319997
9.766666666666667,266033248.70579997
9.8,275889537.2883
9.833333333333334,288265189.3914
9.866666666666667,297102193.4961
9.9,301698589.53749996
9.933333333333334,308064309.57809997
9.966666666666667,315083910.22709996
