Time (s),PPGG
0.0,-61566304.3368
0.03333333333333333,-65747866.176699996
0.06666666666666667,-63807082.7166
0.1,-50276699.6036
0.13333333333333333,-40101361.714999996
0.16666666666666666,-28291357.6313
0.2,-15287496.2141
0.23333333333333334,-5093791.2896
0.26666666666666666,3746875.3236
0.3,14332410.3473
0.3333333333333333,23136342.8887
0.36666666666666664,38901382.0362
0.4,51770551.8568
0.43333333333333335,48501219.4666
0.4666666666666667,31432120.7702
0.5,9691672.6099
0.5333333333333333,-9685550.2646
0.5666666666666667,-25089371.0394
0.6,-33923915.3073
0.6333333333333333,-39360557.9337
0.6666666666666666,-41172772.1425
0.7,-41821740.7443
0.7333333333333333,-45146174.2422
0.7666666666666667,-46474723.172299996
0.8,-45678818.2833
0.8333333333333334,-45293110.5294
0.8666666666666667,-42195203.8076
0.9,-36225917.1401
0.9333333333333333,-29864800.3734
0.9666666666666667,-24660806.8684
1.0,-18342546.5188
1.0333333333333334,-12446727.9949
1.0666666666666667,-2865257.6004
1.1,5571334.223
1.1333333333333333,11069200.3024
1.1666666666666667,17644599.1546
1.2,25168961.5283
1.2333333333333334,36727949.4547
1.2666666666666666,48329793.7982
1.3,52468499.221
1.3333333333333333,53405218.0519
1.3666666666666667,38025886.6583
1.4,-1181612.6429
1.4333333333333333,-39678919.889299996
1.4666666666666666,-66739686.1153
1.5,-90237247.3767
1.5333333333333334,-101483995.6928
1.5666666666666667,-103945178.5034
1.6,-106957372.391
1.6333333333333333,-111316482.2446
1.6666666666666667,-113538893.5885
1.7,-114414388.9664
1.7333333333333334,-113802154.4364
1.7666666666666666,-111604232.4737
1.8,-106645132.7807
1.8333333333333333,-101300325.3338
1.8666666666666667,-97602428.7726
1.9,-95208591.7603
1.9333333333333333,-91351514.2213
1.9666666666666666,-87831165.6738
2.0,-86551595.5061
2.033333333333333,-79455797.3034
2.066666666666667,-72317142.6836
2.1,-62405065.6429
2.1333333333333333,-53209303.0023
2.1666666666666665,-40664617.482599996
2.2,-29852555.6828
2.2333333333333334,-13873234.4498
2.2666666666666666,-2577507.3712999998
2.3,-3967279.7544
2.3333333333333335,-17265013.746
2.3666666666666667,-31940275.4301
2.4,-47466543.1109
2.433333333333333,-61994868.5078
2.466666666666667,-71233487.5655
2.5,-76921146.3492
2.533333333333333,-79406818.541
2.566666666666667,-82333299.5944
2.6,-83465933.47489999
2.6333333333333333,-79688446.4248
2.6666666666666665,-77006859.1834
2.7,-68962097.4592
2.7333333333333334,-59968372.2135
2.7666666666666666,-59435728.1724
2.8,-54831724.506799996
2.8333333333333335,-51556269.7713
2.8666666666666667,-46211462.3244
2.9,-45844121.6064
2.933333333333333,-44160476.6489
2.966666666666667,-44668631.3088
3.0,-41503378.7887
3.033333333333333,-36121837.27
3.066666666666667,-32001498.8831
3.1,-30299486.8897
3.1333333333333333,-28334214.0484
3.1666666666666665,-24764886.7385
3.2,-35025937.4613
3.2333333333333334,-68466187.4899
3.2666666666666666,-96996316.5879
3.3,-113698074.5663
3.3333333333333335,-123701986.78649999
3.3666666666666667,-134495681.5504
3.4,-137091555.9576
3.433333333333333,-138444594.2689
3.466666666666667,-141162915.5821
3.5,-141989432.1976
3.533333333333333,-140960878.1872
3.566666666666667,-137783380.9765
3.6,-133993649.2358
3.6333333333333333,-129830454.4318
3.6666666666666665,-122936693.624
3.7,-115883751.8384
3.7333333333333334,-110275683.5436
3.7666666666666666,-102249288.8553
3.8,-93329031.7532
3.8333333333333335,-85951605.6667
3.8666666666666667,-83649603.8339
3.9,-79333350.3974
3.933333333333333,-76064018.0072
3.966666666666667,-69121278.437
4.0,-54482750.8247
4.033333333333333,-37364673.3659
4.066666666666666,-28719921.8023
4.1,-28340336.3937
4.133333333333334,-51317498.3046
4.166666666666667,-72029392.4545
4.2,-84157758.4938
4.233333333333333,-93812697.0319
4.266666666666667,-101790112.9578
4.3,-100381973.5388
4.333333333333333,-89116858.1868
4.366666666666666,-65894802.4639
4.4,-40034015.9167
4.433333333333334,-15109948.2004
4.466666666666667,-416319.4804
4.5,3630550.7629
4.533333333333333,8454958.8593
4.566666666666666,13383446.8258
4.6,17454806.4503
4.633333333333334,28254623.5595
4.666666666666667,37254471.1505
4.7,39268722.7542
4.733333333333333,42219693.1888
4.766666666666667,55860278.5172
4.8,64994817.7048
4.833333333333333,69996773.8149
4.866666666666666,78617035.9973
4.9,98545269.9488
4.933333333333334,115191926.8195
4.966666666666667,117242912.495
5.0,99641169.7575
5.033333333333333,71582461.2476
5.066666666666666,44938014.502
5.1,22879204.3861
5.133333333333334,10401864.6647
5.166666666666667,-887740.0684999999
5.2,-2546895.6448
5.233333333333333,8020272.343
5.266666666666667,11565110.2717
5.3,6073366.5376
5.333333333333333,19860888.1532
5.366666666666666,41154405.1066
5.4,51678716.6773
5.433333333333334,69574331.9892
5.466666666666667,90861726.5973
5.5,100969718.6876
5.533333333333333,106198201.5738
5.566666666666666,126248882.4313
5.6,141775150.1121
5.633333333333334,149654608.51319999
5.666666666666667,168272660.5705
5.7,175472538.6433
5.733333333333333,179366350.2541
5.766666666666667,191653897.2712
5.8,200610888.4451
5.833333333333333,196000762.4342
5.866666666666666,174786835.9697
5.9,144597551.2954
5.933333333333334,120518367.2305
5.966666666666667,108053272.1997
6.0,90157656.8878
6.033333333333333,70664109.4526
6.066666666666666,51721573.094399996
6.1,35130017.3314
6.133333333333334,22750635.1348
6.166666666666667,15018113.0209
6.2,10689614.8938
6.233333333333333,16903795.3733
6.266666666666667,31107636.469299998
6.3,47240016.3348
6.333333333333333,64988695.3595
6.366666666666666,78053780.2297
6.4,83967965.7895
6.433333333333334,88351565.0243
6.466666666666667,96028986.0305
6.5,103681917.6555
6.533333333333333,108328777.7382
6.566666666666666,115124581.0212
6.6,123799944.3113
6.633333333333334,133522228.6477
6.666666666666667,123224443.8531
6.7,95465730.2629
6.733333333333333,65043796.467199996
6.766666666666667,41956432.3409
6.8,21079234.8679
6.833333333333333,2497916.8824
6.866666666666666,-13230388.1933
6.9,-26430164.660099998
6.933333333333334,-35938166.911
6.966666666666667,-40205441.5851
7.0,-38717711.6772
7.033333333333333,-37615689.5232
7.066666666666666,-33556574.5893
7.1,-26577100.9473
7.133333333333334,-23675109.2751
7.166666666666667,-20681282.4234
7.2,-18856823.524
7.233333333333333,-15011990.6756
7.266666666666667,-7150899.3104
7.3,3195864.2466
7.333333333333333,9048826.3534
7.366666666666666,16560944.0365
7.4,31609668.7839
7.433333333333334,41723783.2195
7.466666666666667,42844172.4094
7.5,31615791.1292
7.533333333333333,7334569.6694
7.566666666666666,-14730362.7918
7.6,-25664871.4976
7.633333333333334,-36672848.347
7.666666666666667,-46021669.6201
7.7,-44558429.0934
7.733333333333333,-39323823.8619
7.766666666666667,-37860583.3352
7.8,-36893252.7778
7.833333333333333,-33979016.415
7.866666666666666,-34052484.5586
7.9,-31823950.8694
7.933333333333334,-24324077.8769
7.966666666666667,-16769103.7767
8.0,-11718168.9042
8.033333333333333,-3122396.103
8.066666666666666,8767198.4696
8.1,23240422.7588
8.133333333333333,33960649.3791
8.166666666666666,42360507.1307
8.2,52633802.5441
8.233333333333333,59974494.5588
8.266666666666667,53350116.9442
8.3,32638222.7943
8.333333333333334,9054948.6987
8.366666666666667,-6042754.8111
8.4,-15856874.327
8.433333333333334,-24415913.0564
8.466666666666667,-26038334.5609
8.5,-24550604.653
8.533333333333333,-22107788.8783
8.566666666666666,-19426201.6369
8.6,-13909968.5216
8.633333333333333,-11638578.4153
8.666666666666666,-10236561.341599999
8.7,-4322375.7818
8.733333333333333,6410095.5291
8.766666666666667,10689614.8938
8.8,12654887.7351
8.833333333333334,22450640.2151
8.866666666666667,30630093.5359
8.9,37205492.3881
8.933333333333334,44142109.613
8.966666666666667,52174626.6466
9.0,48629788.7179
9.033333333333333,25977111.1079
9.066666666666666,-2748933.0397
9.1,-23589396.4409
9.133333333333333,-29197464.7357
9.166666666666666,-37101412.518
9.2,-47803272.1024
9.233333333333333,-50705263.7746
9.266666666666667,-46707372.2937
9.3,-49235900.9026
9.333333333333334,-56723529.2045
9.366666666666667,-70719210.5603
9.4,-93402499.8968
9.433333333333334,-115344985.45199999
9.466666666666667,-129163118.7941
9.5,-135309953.47529998
9.533333333333333,-134630373.14699998
9.566666666666666,-134312011.1914
9.6,-140856798.3171
9.633333333333333,-143624098.3927
9.666666666666666,-136301773.4139
9.7,-123885657.1455
9.733333333333333,-113826643.8176
9.766666666666667,-120793872.769
9.8,-143520018.5226
9.833333333333334,-169117544.2219
9.866666666666667,-190276369.5787
9.9,-193925287.3775
9.933333333333334,-199594579.1253
9.966666666666667,-200610888.4451
