Time (s),PPGG
0.0,20878711.3689
0.03333333333333333,24467306.5582
0.06666666666666667,25666349.659500003
0.1,24309425.438100003
0.13333333333333333,27415843.152500004
0.16666666666666666,34123657.2281
0.2,41655013.362600006
0.23333333333333334,46912027.9562
0.26666666666666666,51597256.8716
0.3,58962197.771400005
0.3333333333333333,65951637.628800005
0.36666666666666664,72591178.78760001
0.4,74643633.3489
0.43333333333333335,72608247.0168
0.4666666666666667,69079390.6297
0.5,58526957.926800005
0.5333333333333333,43464245.657800004
0.5666666666666667,24505710.073900003
0.6,4292659.643800001
0.6333333333333333,-14068487.918100001
0.6666666666666666,-33402524.544400003
0.7,-42687641.229200006
0.7333333333333333,-48341492.151700005
0.7666666666666667,-47863581.73410001
0.8,-43152750.47490001
0.8333333333333334,-44010428.9922
0.8666666666666667,-46195162.3298
0.9,-45243608.55190001
0.9333333333333333,-42346276.64520001
0.9666666666666667,-40012196.3021
1.0,-37251410.229
1.0333333333333334,-39209989.5297
1.0666666666666667,-53786257.2665
1.1,-64428298.1727
1.1333333333333333,-64654452.20960001
1.1666666666666667,-62601997.64830001
1.2,-63391403.24880001
1.2333333333333334,-65652943.617800005
1.2666666666666666,-80416961.87580001
1.3,-110154084.19950001
1.3333333333333333,-127521007.4105
1.3666666666666667,-130648760.4114
1.4,-131331489.57940002
1.4333333333333333,-130755436.84390001
1.4666666666666666,-122750437.34910001
1.5,-116511999.57650001
1.5333333333333334,-111707293.0567
1.5666666666666667,-102341102.28320001
1.6,-95317525.96740001
1.6333333333333333,-89322310.46090001
1.6666666666666667,-81539197.9457
1.7,-74020642.98310001
1.7333333333333334,-68627082.55590001
1.7666666666666666,-63310329.160100006
1.8,-58241065.0877
1.8333333333333333,-42952198.7818
1.8666666666666667,-34960000.458900005
1.9,-26801386.901300002
1.9333333333333333,-19747941.184400003
1.9666666666666666,-13402826.979300002
2.0,-7172923.321300001
2.033333333333333,-2206068.6241
2.066666666666667,1190508.9867
2.1,76807.0314
2.1333333333333333,-5508770.974300001
2.1666666666666665,-14055686.7462
2.2,-21591309.938
2.2333333333333334,-27616394.8456
2.2666666666666666,-31802378.056900002
2.3,-34627169.9895
2.3333333333333335,-36897244.47310001
2.3666666666666667,-38663806.195300005
2.4,-39585490.572100006
2.433333333333333,-39995128.072900005
2.466666666666667,-39956724.55720001
2.5,-38838755.5446
2.533333333333333,-37780525.3342
2.566666666666667,-36167577.6748
2.6,-33842031.4463
2.6333333333333333,-30018748.1055
2.6666666666666665,-26169862.420900002
2.7,-23387741.061300002
2.7333333333333334,-19914356.4191
2.7666666666666666,-16854876.335
2.8,-10543898.5883
2.8333333333333335,-2329813.2858
2.8666666666666667,10539631.531000001
2.9,23131717.6233
2.933333333333333,29434161.255400002
2.966666666666667,30419851.4917
3.0,29668849.406900004
3.033333333333333,27368905.522200003
3.066666666666667,23818713.848600004
3.1,15412610.967600001
3.1333333333333333,10552432.702900002
3.1666666666666665,-11422912.3921
3.2,-21830265.1468
3.2333333333333334,-40566913.7511
3.2666666666666666,-49237574.184700005
3.3,-63510880.8532
3.3333333333333335,-69254339.979
3.3666666666666667,-77161197.1559
3.4,-80361490.13090001
3.433333333333333,-86245762.14760001
3.466666666666667,-88788928.29840001
3.5,-91596652.00180002
3.533333333333333,-92270847.05520001
3.566666666666667,-92902371.5356
3.6,-92488466.9775
3.6333333333333333,-92663416.3268
3.6666666666666665,-92398858.7742
3.7,-91255287.41780001
3.7333333333333334,-91925215.4139
3.7666666666666666,-101095121.55160001
3.8,-113448252.4351
3.8333333333333335,-123539842.94960001
3.8666666666666667,-131839269.39810002
3.9,-138188650.66050002
3.933333333333333,-139818666.5491
3.966666666666667,-138180116.54590002
4.0,-134361100.2624
4.033333333333333,-108140033.15390001
4.066666666666666,-80395626.5893
4.1,-11631998.199800001
4.133333333333334,10031851.7123
4.166666666666667,44932113.369
4.2,55778973.02560001
4.233333333333333,63984524.21350001
4.266666666666667,64812333.32970001
4.3,61112794.65060001
4.333333333333333,59068874.2039
4.366666666666666,54746345.159
4.4,52169042.54980001
4.433333333333334,39935389.2707
4.466666666666667,34426618.2964
4.5,24505710.073900003
4.533333333333333,19833282.3304
4.566666666666666,10548165.6456
4.6,-2782121.3596
4.633333333333334,-20422136.237800002
4.666666666666667,-27441445.4963
4.7,-32305890.8183
4.733333333333333,-34046850.19670001
4.766666666666667,-27296365.548100002
4.8,-12455540.258700002
4.833333333333333,6157363.6839000005
4.866666666666666,36764965.6968
4.9,63242056.243300006
4.933333333333334,73546999.62280001
4.966666666666667,84154904.0706
5.0,102938490.30520001
5.033333333333333,120924136.82470001
5.066666666666666,124056156.88290001
5.1,126974824.0761
5.133333333333334,132197702.21130002
5.166666666666667,136417821.881
5.2,139818666.5491
5.233333333333333,135636950.39510003
5.266666666666667,135338256.38410002
5.3,135935644.4061
5.333333333333333,132005684.63280001
5.366666666666666,125118654.15060002
5.4,110486914.66890001
5.433333333333334,103557213.6137
5.466666666666667,100843365.1709
5.5,102520318.68980001
5.533333333333333,110465579.3824
5.566666666666666,112535102.1729
5.6,103322525.46220002
5.633333333333334,96111198.6252
5.666666666666667,91681993.14780001
5.7,89202832.85650001
5.733333333333333,86437779.72610001
5.766666666666667,82221927.1137
5.8,79456873.9833
5.833333333333333,75906682.30970001
5.866666666666666,61846728.50620001
5.9,53952672.501200005
5.933333333333334,49890433.95160001
5.966666666666667,50423816.1141
6.0,52032496.7162
6.033333333333333,51520449.84020001
6.066666666666666,50419549.05680001
6.1,49331449.445300005
6.133333333333334,43903752.559700005
6.166666666666667,42576697.73940001
6.2,42994869.3548
6.233333333333333,43263693.964700006
6.266666666666667,47001636.1595
6.3,49438125.8778
6.333333333333333,47415540.7176
6.366666666666666,45085727.43180001
6.4,46805351.52370001
6.433333333333334,48571913.245900005
6.466666666666667,48170809.8597
6.5,48793800.2255
6.533333333333333,51251625.2303
6.566666666666666,57374852.455800004
6.6,62486787.10120001
6.633333333333334,65849228.25360001
6.666666666666667,67837676.9554
6.7,71810307.30170001
6.733333333333333,73977972.41010001
6.766666666666667,72885605.7413
6.8,70082149.0952
6.833333333333333,66054047.00400001
6.866666666666666,61449892.177300006
6.9,57088959.61670001
6.933333333333334,53483296.1982
6.966666666666667,50649970.15100001
7.0,47919053.479
7.033333333333333,45290546.18220001
7.066666666666666,45162534.4632
7.1,46293304.647700004
7.133333333333334,46583464.5441
7.166666666666667,45132665.0621
7.2,41983576.7747
7.233333333333333,35250160.3553
7.266666666666667,25226842.757600002
7.3,28090038.205900002
7.333333333333333,45977542.407500006
7.366666666666666,47432608.9468
7.4,42000645.00390001
7.433333333333334,40601050.20950001
7.466666666666667,36636953.977800004
7.5,18386749.905700002
7.533333333333333,1950045.1861000003
7.566666666666666,-7906857.1769
7.6,-17627213.7063
7.633333333333334,-15651566.176400002
7.666666666666667,-3686737.5072000003
7.7,1830567.5817000002
7.733333333333333,-2035386.3321000002
7.766666666666667,-11422912.3921
7.8,-15058445.211700002
7.833333333333333,-14490926.590800002
7.866666666666666,-12720097.811300002
7.9,-10979138.4329
7.933333333333334,-7825783.088200001
7.966666666666667,-4335330.2168000005
8.0,-3469117.5849
8.033333333333333,-3972630.3463000003
8.066666666666666,-3187491.8031
8.1,-678462.1107000001
8.133333333333333,648592.7096000001
8.166666666666666,-2978405.9954000004
8.2,-9690487.1283
8.233333333333333,-16940217.481000002
8.266666666666667,-26161328.306300003
8.3,-35100813.349800006
8.333333333333334,-42209730.81160001
8.366666666666667,-45077193.317200005
8.4,-40861340.7048
8.433333333333334,-35719536.658300005
8.466666666666667,-31520752.275100004
8.5,-28939182.6086
8.533333333333333,-26071720.103000004
8.566666666666666,-23400542.233200002
8.6,-21518769.963900004
8.633333333333333,-20375198.6075
8.666666666666666,-16825006.933900002
8.7,-14371448.9864
8.733333333333333,-12280590.909400001
8.766666666666667,-5871470.844800001
8.8,-3174690.6312
8.833333333333334,-5363691.0261
8.866666666666667,-9378991.945400001
8.9,-14486659.5335
8.933333333333334,-19363906.027400002
8.966666666666667,-21915606.2928
9.0,-24061936.1147
9.033333333333333,-27138484.428000003
9.066666666666666,-28572215.680800002
9.1,-31409808.7853
9.133333333333333,-37063659.7078
9.166666666666666,-40929613.6216
9.2,-39261194.217300005
9.233333333333333,-34345544.20770001
9.266666666666667,-29749923.495600004
9.3,-25051893.4083
9.333333333333334,-19905822.304500002
9.366666666666667,-17708287.795
9.4,-14187965.5225
9.433333333333334,-6498728.2679
9.466666666666667,-2184733.3376
9.5,1621481.7740000002
9.533333333333333,6895564.5968
9.566666666666666,10936467.859900001
9.6,10582302.104
9.633333333333333,6622472.9296
9.666666666666666,2163398.0511000003
9.7,-1830567.5817000002
9.733333333333333,-6567001.184700001
9.766666666666667,-9844101.191100001
9.8,-9460066.034100002
9.833333333333334,-7992198.322900001
9.866666666666667,-7535623.191800001
9.9,-8269557.0474000005
9.933333333333334,-9144303.7939
9.966666666666667,-9498469.549800001
