Time (s),PPGG
0.0,86456675.2069
0.03333333333333333,87697208.41360001
0.06666666666666667,89022634.62120001
0.1,89731901.95130001
0.13333333333333333,88485891.7768
0.16666666666666666,85676207.29540001
0.2,83025354.8802
0.23333333333333334,80034930.4614
0.26666666666666666,77244415.3673
0.3,75593109.5756
0.3333333333333333,74560701.1453
0.36666666666666664,73232536.45380001
0.4,71690770.01810001
0.43333333333333335,70808978.2023
0.4666666666666667,70609068.8776
0.5,70943163.91340001
0.5333333333333333,71181412.0127
0.5666666666666667,71879725.40720001
0.6,76307853.8735
0.6333333333333333,78545195.21980001
0.6666666666666666,80034930.4614
0.7,81510973.2835
0.7333333333333333,82781629.81310001
0.7666666666666667,84246718.69960001
0.8,85410574.35710001
0.8333333333333334,85525590.68090001
0.8666666666666667,84498659.2184
0.9,83247172.0761
0.9333333333333333,80703120.533
0.9666666666666667,77277277.17410001
1.0,75196029.4101
1.0333333333333334,74043127.68820001
1.0666666666666667,72520530.63980001
1.1,71455260.4027
1.1333333333333333,70877440.29980001
1.1666666666666667,70417375.0046
1.2,70609068.8776
1.2333333333333334,70986979.6558
1.2666666666666666,71504553.1129
1.3,72386344.9287
1.3333333333333333,73476261.52090001
1.3666666666666667,74629163.24280001
1.4,75406892.67040001
1.4333333333333333,75935420.06310001
1.4666666666666666,76288684.4862
1.5,77310138.9809
1.5333333333333334,79136707.7422
1.5666666666666667,80976968.92300001
1.6,80714074.4686
1.6333333333333333,78446609.7994
1.6666666666666667,75760157.0935
1.7,74522362.3707
1.7333333333333334,73717248.1041
1.7666666666666666,72676624.2221
1.8,71107472.9474
1.8333333333333333,70474883.1665
1.8666666666666667,70589899.4903
1.9,70099710.8722
1.9333333333333333,69746446.4491
1.9666666666666666,70135311.1629
2.0,70255804.4545
2.033333333333333,70784331.8472
2.066666666666667,71937233.5691
2.1,72449330.0584
2.1333333333333333,73405060.9395
2.1666666666666665,74385438.17570001
2.2,75401415.7026
2.2333333333333334,76710411.00680001
2.2666666666666666,77496355.88610001
2.3,78293254.701
2.3333333333333335,78673903.9631
2.3666666666666667,77627803.11330001
2.4,75133044.28040001
2.433333333333333,73027150.1613
2.466666666666667,72128927.4421
2.5,71288212.8848
2.533333333333333,70469406.19870001
2.566666666666667,70157219.03410001
2.6,69762877.3525
2.6333333333333333,68985147.92490001
2.6666666666666665,69133026.0555
2.7,68922162.7952
2.7333333333333334,68659268.3408
2.7666666666666666,69398658.9938
2.8,70014817.87130001
2.8333333333333335,70327005.03590001
2.8666666666666667,71091042.044
2.9,71603138.5333
2.933333333333333,71964618.40810001
2.966666666666667,72528746.0915
3.0,72788902.062
3.033333333333333,73268136.74450001
3.066666666666667,72005695.6666
3.1,67900708.3005
3.1333333333333333,64765144.23500001
3.1666666666666665,63023468.4746
3.2,62070476.07740001
3.2333333333333334,61005205.8403
3.2666666666666666,60087813.7338
3.3,59118390.4332
3.3333333333333335,57141205.0574
3.3666666666666667,55793870.9786
3.4,55966395.46430001
3.433333333333333,56974157.539500006
3.466666666666667,57634132.1594
3.5,58762387.526200004
3.533333333333333,60106983.1211
3.566666666666667,61035329.163200006
3.6,62634603.760800004
3.6333333333333333,64250309.261800006
3.6666666666666665,64398187.392400004
3.7,64025753.582
3.7333333333333334,65457980.6617
3.7666666666666666,66356203.3809
3.8,66260356.444400005
3.8333333333333335,63754643.675900005
3.8666666666666667,60786127.1283
3.9,53824901.054500006
3.933333333333333,50459304.341400005
3.966666666666667,48939445.7769
4.0,47704389.538
4.033333333333333,47192293.048700005
4.066666666666666,45979144.681
4.1,42446500.45
4.133333333333334,41225136.630600005
4.166666666666667,41014273.3703
4.2,41813910.6691
4.233333333333333,44650979.9895
4.266666666666667,52455659.1045
4.3,54219242.7361
4.333333333333333,45269877.3509
4.366666666666666,43352938.620900005
4.4,34072216.683800004
4.433333333333334,30027475.9635
4.466666666666667,16885491.7274
4.5,15387541.034100002
4.533333333333333,-3184856.7757
4.566666666666666,-6481991.3913
4.6,-16543181.2399
4.633333333333334,-25402176.656400003
4.666666666666667,-36435528.289500006
4.7,-39028872.5428
4.733333333333333,-40932118.853300005
4.766666666666667,-34797914.9173
4.8,-28329615.9455
4.833333333333333,-25257037.0097
4.866666666666666,-27866812.1664
4.9,-30126061.3839
4.933333333333334,-31136561.943000004
4.966666666666667,-31325517.3321
5.0,-28710265.2076
5.033333333333333,-25851288.016000003
5.066666666666666,-8919242.0623
5.1,629851.297
5.133333333333334,21100018.449500002
5.166666666666667,26108705.502600003
5.2,38982318.3165
5.233333333333333,37700707.8513
5.266666666666667,37120149.2645
5.3,33866830.3913
5.333333333333333,29071745.0824
5.366666666666666,23898748.995300002
5.4,20141549.0845
5.433333333333334,17786452.9305
5.466666666666667,4948440.4073
5.5,-2867192.6433
5.533333333333333,-17049800.7614
5.566666666666666,-22124211.4281
5.6,-32218263.0835
5.633333333333334,-35802938.508600004
5.666666666666667,-40973196.1118
5.7,-42640932.8069
5.733333333333333,-46677458.075500004
5.766666666666667,-47781067.0872
5.8,-50141640.20900001
5.833333333333333,-51836761.7431
5.866666666666666,-53055387.078600004
5.9,-51768299.645600006
5.933333333333334,-48608089.225
5.966666666666667,-48567011.96650001
6.0,-44911135.96
6.033333333333333,-44700272.699700005
6.066666666666666,-38007418.0481
6.1,-37577476.0758
6.133333333333334,-17526296.96
6.166666666666667,-12898259.169000002
6.2,5205857.8939000005
6.233333333333333,9362876.4541
6.266666666666667,18964001.0075
6.3,23668716.3477
6.333333333333333,34567882.269700006
6.366666666666666,42106928.4464
6.4,53310066.081300005
6.433333333333334,58072289.5834
6.466666666666667,60211045.5093
6.5,64211970.48720001
6.533333333333333,61558379.5881
6.566666666666666,59036235.916200005
6.6,54076841.573300004
6.633333333333334,52001070.777100004
6.666666666666667,34403573.235700004
6.7,31202285.5566
6.733333333333333,6991349.3967
6.766666666666667,-1462350.4026000001
6.8,-18117809.4824
6.833333333333333,-26724864.3801
6.866666666666666,-42079543.6074
6.9,-49070893.0041
6.933333333333334,-64132554.454100005
6.966666666666667,-71208796.85170001
7.0,-77110229.6562
7.033333333333333,-79320186.16350001
7.066666666666666,-78142638.0865
7.1,-78882028.7395
7.133333333333334,-74557962.6614
7.166666666666667,-70480360.13430001
7.2,-70033987.25860001
7.233333333333333,-71178673.52880001
7.266666666666667,-72879272.0307
7.3,-71950925.9886
7.333333333333333,-72567084.8661
7.366666666666666,-72200128.02350001
7.4,-69845031.86950001
7.433333333333334,-70885655.75150001
7.466666666666667,-60041259.5075
7.5,-55388575.3614
7.533333333333333,-31421364.268600002
7.566666666666666,-28726696.111
7.6,-15696989.7148
7.633333333333334,-12241023.033000002
7.666666666666667,90369.96870000001
7.7,5282535.443100001
7.733333333333333,14541349.509000001
7.766666666666667,18284857.0003
7.8,25678763.530300003
7.833333333333333,29638611.249700002
7.866666666666666,32256601.8581
7.9,34502158.656100005
7.933333333333334,30202738.933100004
7.966666666666667,26727602.864
8.0,15231447.451800002
8.033333333333333,13807435.823800001
8.066666666666666,-3754461.4269000003
8.1,-7845756.373500001
8.133333333333333,-19766376.790200002
8.166666666666666,-24775063.8433
8.2,-42041204.8328
8.233333333333333,-49591204.9451
8.266666666666667,-61799366.1713
8.3,-65600381.8245
8.333333333333334,-69658814.9643
8.366666666666667,-71614092.46890001
8.4,-77299185.0453
8.433333333333334,-82061408.54740001
8.466666666666667,-86122580.1711
8.5,-88003918.6104
8.533333333333333,-89731901.95130001
8.566666666666666,-89647008.95040001
8.6,-86552522.1434
8.633333333333333,-84115271.47240001
8.666666666666666,-75157690.6355
8.7,-70116141.7756
8.733333333333333,-60714926.546900004
8.766666666666667,-56913910.8937
8.8,-57872380.258700006
8.833333333333334,-57182282.315900005
8.866666666666667,-57702594.256900005
8.9,-59934458.635400005
8.933333333333334,-67615905.9749
8.966666666666667,-73018934.7096
9.0,-77526479.209
9.033333333333333,-80432010.6269
9.066666666666666,-85416051.3249
9.1,-88526969.0353
9.133333333333333,-88088811.6113
9.166666666666666,-87650654.18730001
9.2,-83074647.59040001
9.233333333333333,-80725028.4042
9.266666666666667,-62790697.343100004
9.3,-57593054.90090001
9.333333333333334,-33623105.324200004
9.366666666666667,-28176260.8471
9.4,-10510301.2082
9.433333333333334,-4406220.5951000005
9.466666666666667,6742147.3618
9.5,10507562.7243
9.533333333333333,22039318.4272
9.566666666666666,27718934.035800003
9.6,34625390.431600004
9.633333333333333,34266649.0407
9.666666666666666,30964037.457300004
9.7,28532263.754100002
9.733333333333333,19862223.7267
9.766666666666667,14875444.5448
9.8,8081265.9889
9.833333333333334,5455059.928800001
9.866666666666667,-12851704.9427
9.9,-17868607.4475
9.933333333333334,-35178564.179400004
9.966666666666667,-40217374.5554
