Time (s),PPGG
0.0,93449483.6772
0.03333333333333333,133924847.29290001
0.06666666666666667,149693887.68330002
0.1,155793937.8722
0.13333333333333333,160759095.0027
0.16666666666666666,164537094.2629
0.2,170211559.55490002
0.23333333333333334,174706333.3783
0.26666666666666666,179977612.9785
0.3,184263327.5543
0.3333333333333333,187272287.43940002
0.36666666666666664,190654567.4095
0.4,191192148.3319
0.43333333333333335,181553023.73720002
0.4666666666666667,160184182.0718
0.5,141562976.232
0.5333333333333333,130146848.0327
0.5666666666666667,123890003.40810001
0.6,121112501.9757
0.6333333333333333,123038833.61430001
0.6666666666666666,127712801.0785
0.7,132864618.25150001
0.7333333333333333,136007973.36720002
0.7666666666666667,139673976.6019
0.8,148566461.0266
0.8333333333333334,157242419.80200002
0.8666666666666667,169039334.488
0.9,178499265.4419
0.9333333333333333,187466413.8836
0.9666666666666667,197725249.8194
1.0,205796430.0571
1.0333333333333334,213755614.2693
1.0666666666666667,224081647.8204
1.1,230704346.1283
1.1333333333333333,236759597.907
1.1666666666666667,244651584.50390002
1.2,241739687.8409
1.2333333333333334,226679955.61200002
1.2666666666666666,212292199.5361
1.3,200017435.14130002
1.3333333333333333,178447000.63
1.3666666666666667,166261833.05560002
1.4,148894982.7014
1.4333333333333333,138091099.4415
1.4666666666666666,113937289.942
1.5,94009463.8047
1.5333333333333334,59716280.7966
1.5666666666666667,44895473.4221
1.6,10639622.422500001
1.6333333333333333,-7518666.5119
1.6666666666666667,-27633152.6917
1.7,-38758091.224700004
1.7333333333333334,-54706325.2559
1.7666666666666666,-61329023.5638
1.8,-72043310.0033
1.8333333333333333,-79935296.6002
1.8666666666666667,-88738184.2045
1.9,-97205083.7323
1.9333333333333333,-100871086.96700001
1.9666666666666666,-103349932.3314
2.0,-110487812.3566
2.033333333333333,-117229973.0917
2.066666666666667,-121164766.78760001
2.1,-131162278.6639
2.1333333333333333,-154427586.36110002
2.1666666666666665,-178424601.4249
2.2,-190273780.9228
2.2333333333333334,-192132914.9461
2.2666666666666666,-197113004.88
2.3,-194970147.5921
2.3333333333333335,-189661535.98340002
2.3666666666666667,-182232466.2919
2.4,-175034855.05310002
2.433333333333333,-172063227.17650002
2.466666666666667,-166799413.97800002
2.5,-164193639.7847
2.533333333333333,-163499264.4266
2.566666666666667,-162857153.8804
2.6,-161483335.96760002
2.6333333333333333,-160691897.3874
2.6666666666666665,-160550035.7551
2.7,-158773032.1505
2.7333333333333334,-157891996.7499
2.7666666666666666,-155920866.70110002
2.8,-154225993.51520002
2.8333333333333335,-151134903.2114
2.8666666666666667,-147887018.47190002
2.9,-143362379.0417
2.933333333333333,-137359392.0749
2.966666666666667,-138509217.93670002
3.0,-150328531.8278
3.033333333333333,-161834256.8475
3.066666666666667,-167755113.39560002
3.1,-170024899.5124
3.1333333333333333,-172899464.1669
3.1666666666666665,-175833760.035
3.2,-173474377.09780002
3.2333333333333334,-171719772.6983
3.2666666666666666,-170584879.6399
3.3,-167964172.6432
3.3333333333333335,-167956706.24150002
3.3666666666666667,-166754615.56780002
3.4,-162446501.7869
3.433333333333333,-158108522.39920002
3.466666666666667,-154890503.2665
3.5,-147461433.57500002
3.533333333333333,-143086122.17880002
3.566666666666667,-138658545.9707
3.6,-132237440.50870001
3.6333333333333333,-128877559.74370001
3.6666666666666665,-124449983.5356
3.7,-118700854.2266
3.7333333333333334,-115535099.9058
3.7666666666666666,-112996523.3278
3.8,-107859638.95820001
3.8333333333333335,-109651575.3662
3.8666666666666667,-121993537.3763
3.9,-136978605.5882
3.933333333333333,-153882539.037
3.966666666666667,-165313600.0397
4.0,-170181693.9481
4.033333333333333,-164873082.3394
4.066666666666666,-155823803.479
4.1,-140472881.58380002
4.133333333333334,-124323054.70670001
4.166666666666667,-111249385.33
4.2,-99280743.4049
4.233333333333333,-90671982.2448
4.266666666666667,-79547043.71180001
4.3,-69452468.6134
4.333333333333333,-59126435.062300004
4.366666666666666,-51951223.0286
4.4,-43499256.3042
4.433333333333334,-34143854.9741
4.466666666666667,-29850673.996600002
4.5,-24310603.935200002
4.533333333333333,-19502241.2404
4.566666666666666,-16000498.8431
4.6,-10826282.465
4.633333333333334,-3539074.4058000003
4.666666666666667,-2277252.5185000002
4.7,-9534594.970900001
4.733333333333333,-22055750.6218
4.766666666666667,-38556498.378800005
4.8,-45052267.8578
4.833333333333333,-47060729.9151
4.866666666666666,-49113990.3826
4.9,-46933801.0862
4.933333333333334,-42080639.9812
4.966666666666667,-39721257.044
5.0,-36682431.5521
5.033333333333333,-33688404.4704
5.066666666666666,-32053262.4981
5.1,-26266801.180600002
5.133333333333334,-19173719.5656
5.166666666666667,-13125934.1886
5.2,-11662519.455400001
5.233333333333333,-10049776.6882
5.266666666666667,-7697860.1527
5.3,-5472872.4461
5.333333333333333,-2105525.2794
5.366666666666666,1777003.6046000002
5.4,6772026.3419
5.433333333333334,13155799.795400001
5.466666666666667,16732206.209700001
5.5,12446491.6339
5.533333333333333,-30007468.4323
5.566666666666666,-58902443.011300005
5.6,-74462424.1541
5.633333333333334,-79308118.8574
5.666666666666667,-80681936.7702
5.7,-79233454.84040001
5.733333333333333,-76373822.9893
5.766666666666667,-72901946.1988
5.8,-68638630.8281
5.833333333333333,-66152319.06200001
5.866666666666666,-62695375.0749
5.9,-58446992.5076
5.933333333333334,-52055752.6524
5.966666666666667,-45492785.5581
6.0,-36421107.4926
6.033333333333333,-27767547.9223
6.066666666666666,-20308612.624
6.1,-12752614.103600001
6.133333333333334,-5457939.642700001
6.166666666666667,1993529.2539000001
6.2,8003982.622400001
6.233333333333333,12013440.3353
6.266666666666667,7772524.1697
6.3,-5689398.0954
6.333333333333333,-22570932.3391
6.366666666666666,-33531610.034700003
6.4,-39407668.1726
6.433333333333334,-44036837.2266
6.466666666666667,-46157295.3094
6.5,-46433552.1723
6.533333333333333,-45574915.9768
6.566666666666666,-46851670.667500004
6.6,-49957693.7747
6.633333333333334,-54840720.4865
6.666666666666667,-56259336.8095
6.7,-56348933.6299
6.733333333333333,-55721755.8871
6.766666666666667,-55497763.836100005
6.8,-55333502.9987
6.833333333333333,-54034349.102900006
6.866666666666666,-52570934.3697
6.9,-52436539.1391
6.933333333333334,-54340471.5726
6.966666666666667,-55340969.400400005
7.0,-58693383.7637
7.033333333333333,-71796918.7472
7.066666666666666,-93524147.69420001
7.1,-113175716.9686
7.133333333333334,-122695379.13610001
7.166666666666667,-126734702.45580001
7.2,-126271785.5504
7.233333333333333,-124561979.5611
7.266666666666667,-120179201.7632
7.3,-115594831.11940001
7.333333333333333,-109315587.2897
7.366666666666666,-104962675.0986
7.4,-100863620.5653
7.433333333333334,-95920862.6399
7.466666666666667,-93904934.18090001
7.5,-86281738.0452
7.533333333333333,-79502245.30160001
7.566666666666666,-72215037.2424
7.6,-64494777.884600006
7.633333333333334,-59260830.2929
7.666666666666667,-52421606.335700005
7.7,-43454457.894
7.733333333333333,-45119465.4731
7.766666666666667,-58439526.105900005
7.8,-73939776.0351
7.833333333333333,-87013445.4118
7.866666666666666,-92224993.7984
7.9,-92030867.3542
7.933333333333334,-89962674.08330001
7.966666666666667,-84885520.9273
8.0,-79121458.81490001
8.033333333333333,-75074669.0935
8.066666666666666,-73454459.9246
8.1,-70579895.2701
8.133333333333333,-66981089.6507
8.166666666666666,-61881537.2896
8.2,-54892985.2984
8.233333333333333,-49039326.365600005
8.266666666666667,-43051272.2022
8.3,-37055751.6371
8.333333333333334,-30485318.1411
8.366666666666667,-26095073.9415
8.4,-21047786.392300002
8.433333333333334,-21062719.1957
8.466666666666667,-34509708.657400005
8.5,-51525638.1317
8.533333333333333,-66592836.7623
8.566666666666666,-75298661.1445
8.6,-82249881.1272
8.633333333333333,-87259836.66790001
8.666666666666666,-89566954.7932
8.7,-93703341.33500001
8.733333333333333,-98750628.8842
8.766666666666667,-104051774.09120001
8.8,-111443511.7742
8.833333333333334,-119664020.0459
8.866666666666667,-122516185.49530001
8.9,-126279251.95210001
8.933333333333334,-129818326.35790001
8.966666666666667,-132812353.4396
9.0,-136060238.1791
9.033333333333333,-140009964.6784
9.066666666666666,-141674972.2575
9.1,-148461931.4028
9.133333333333333,-168292694.31800002
9.166666666666666,-193603796.081
9.2,-218802901.8185
9.233333333333333,-236453475.4373
9.266666666666667,-244651584.50390002
9.3,-241388766.96100003
9.333333333333334,-233287721.11650002
9.366666666666667,-224484833.5122
9.4,-219109024.28820002
9.433333333333334,-215375823.4382
9.466666666666667,-211650088.98990002
9.5,-210000014.21420002
9.533333333333333,-207043319.141
9.566666666666666,-201652577.11360002
9.6,-190415642.5551
9.633333333333333,-179693889.7139
9.666666666666666,-173160788.22640002
9.7,-167344461.3021
9.733333333333333,-161722260.822
9.766666666666667,-160490304.5415
9.8,-166254366.6539
9.833333333333334,-179148842.3898
9.866666666666667,-190430575.3585
9.9,-193417136.0385
9.933333333333334,-193230475.99600002
9.966666666666667,-191714796.45090002
