Time (s),PPGG
0.0,116402449.26099999
0.03333333333333333,107876269.489
0.06666666666666667,100046250.86
0.1,90508125.509
0.13333333333333333,82663753.042
0.16666666666666666,67319500.22
0.2,44776797.641
0.23333333333333334,25722077.696
0.26666666666666666,10966332.231999999
0.3,1248783.906
0.3333333333333333,-6236742.611
0.36666666666666664,-8562064.367
0.4,-8741487.342
0.43333333333333335,-11131401.368999999
0.4666666666666667,-13449546.206
0.5,-14576322.489
0.5333333333333333,-13456723.125
0.5666666666666667,-8533356.691
0.6,-4069313.073
0.6333333333333333,-509561.249
0.6666666666666666,1212899.311
0.7,5181735.518
0.7333333333333333,9724725.245
0.7666666666666667,7708011.006
0.8,-581330.439
0.8333333333333334,-7420934.246
0.8666666666666667,-11899331.702
0.9,-14504553.299
0.9333333333333333,-16585859.809
0.9666666666666667,-17030828.787
1.0,-15329898.984
1.0333333333333334,-14088291.997
1.0666666666666667,-14382545.675999999
1.1,-14770099.302
1.1333333333333333,-15337075.902999999
1.1666666666666667,-14841868.492
1.2,-13872984.427
1.2333333333333334,-12085931.595999999
1.2666666666666666,-9495063.837
1.3,-5935312.013
1.3333333333333333,-3251144.307
1.3666666666666667,-150715.299
1.4,3753528.637
1.4333333333333333,7808487.8719999995
1.4666666666666666,12222293.057
1.5,15925583.261
1.5333333333333334,15530852.716
1.5666666666666667,13435192.367999999
1.6,9581186.865
1.6333333333333333,5397043.0879999995
1.6666666666666667,1959298.8869999999
1.7,-14353.838
1.7333333333333334,-1083714.769
1.7666666666666666,-1421029.962
1.8,-1543037.585
1.8333333333333333,-1995183.482
1.8666666666666667,-3021482.8989999997
1.9,-4133905.344
1.9333333333333333,-5361158.493
1.9666666666666666,-7112326.729
2.0,-7119503.648
2.033333333333333,-5188912.437
2.066666666666667,-4011897.721
2.1,-2102837.267
2.1333333333333333,-854053.361
2.1666666666666665,-244015.24599999998
2.2,2892298.357
2.2333333333333334,7019026.782
2.2666666666666666,10291701.845999999
2.3,12251000.733
2.3333333333333335,11497424.238
2.3666666666666667,6064496.555
2.4,-4435335.942
2.433333333333333,-15186360.604
2.466666666666667,-27430184.417999998
2.5,-27408653.661
2.533333333333333,-28865568.218
2.566666666666667,-29934929.149
2.6,-30107175.205
2.6333333333333333,-28600022.215
2.6666666666666665,-26482831.11
2.7,-15157652.928
2.7333333333333334,-6961611.43
2.7666666666666666,1507152.99
2.8,8511825.934
2.8333333333333335,15616975.743999999
2.8666666666666667,21222149.483
2.9,25722077.696
2.933333333333333,30666974.887
2.966666666666667,35468333.698
3.0,38109439.89
3.033333333333333,43075867.838
3.066666666666667,47425080.752
3.1,51659462.962
3.1333333333333333,62037287.835999995
3.1666666666666665,64398494.187
3.2,66881708.161
3.2333333333333334,68898422.4
3.2666666666666666,69321860.62099999
3.3,71352928.698
3.3333333333333335,75666257.017
3.3666666666666667,77962871.097
3.4,79570500.953
3.433333333333333,81271430.756
3.466666666666667,84271382.898
3.5,86381397.08399999
3.533333333333333,86725889.196
3.566666666666667,89503356.84899999
3.6,92948277.969
3.6333333333333333,97670690.671
3.6666666666666665,99988835.508
3.7,104359579.179
3.7333333333333334,109684853.07699999
3.7666666666666666,113933589.125
3.8,117199087.27
3.8333333333333335,122596130.358
3.8666666666666667,127670212.09099999
3.9,127964465.77
3.933333333333333,124519544.64999999
3.966666666666667,120242100.926
4.0,114378558.103
4.033333333333333,108952807.339
4.066666666666666,107632254.243
4.1,107101162.237
4.133333333333334,107316469.807
4.166666666666667,108048515.545
4.2,107366708.24
4.233333333333333,107122692.994
4.266666666666667,107768615.704
4.3,108077223.221
4.333333333333333,107625077.324
4.366666666666666,110029345.189
4.4,114464681.131
4.433333333333334,117780417.70899999
4.466666666666667,122050684.514
4.5,126550612.727
4.533333333333333,130533802.772
4.566666666666666,130512272.015
4.6,128323311.72
4.633333333333334,127691742.848
4.666666666666667,128782634.536
4.7,125438190.28199999
4.733333333333333,120715777.58
4.766666666666667,121806669.26799999
4.8,124763559.896
4.833333333333333,123780321.993
4.866666666666666,121663130.888
4.9,128674980.751
4.933333333333334,143129295.61699998
4.966666666666667,152538236.426
5.0,156908980.097
5.033333333333333,164085899.097
5.066666666666666,170372880.141
5.1,172619255.788
5.133333333333334,174686208.46
5.166666666666667,181985135.083
5.2,190877337.724
5.233333333333333,199137971.493
5.266666666666667,204384299.282
5.3,210714341.84
5.333333333333333,219010860.204
5.366666666666666,226209309.961
5.4,232273806.516
5.433333333333334,235123043.359
5.466666666666667,235166104.873
5.5,228678170.097
5.533333333333333,218601775.821
5.566666666666666,210298080.538
5.6,206357952.007
5.633333333333334,201111624.218
5.666666666666667,198635587.163
5.7,199410694.415
5.733333333333333,199690594.25599998
5.766666666666667,197300680.229
5.8,193073474.938
5.833333333333333,192563913.689
5.866666666666666,193819874.514
5.9,193920351.38
5.933333333333334,193525620.835
5.966666666666667,196482511.463
6.0,199532702.038
6.033333333333333,203573307.435
6.066666666666666,206551728.82
6.1,210039711.454
6.133333333333334,213025309.758
6.166666666666667,213857832.362
6.2,211812410.447
6.233333333333333,204807737.503
6.266666666666667,195484919.722
6.3,187252993.629
6.333333333333333,179279436.62
6.366666666666666,174420662.457
6.4,171772379.346
6.433333333333334,169274811.534
6.466666666666667,166124144.093
6.5,165162436.947
6.533333333333333,163253376.493
6.566666666666666,160583562.625
6.6,156076457.493
6.633333333333334,153112389.946
6.666666666666667,153119566.865
6.7,153241574.488
6.733333333333333,152861197.781
6.766666666666667,154540596.827
6.8,159004640.445
6.833333333333333,161329962.201
6.866666666666666,157892218.0
6.9,157540548.969
6.933333333333334,159657740.074
6.966666666666667,163971068.393
7.0,161782108.098
7.033333333333333,152466467.236
7.066666666666666,147988069.78
7.1,154045389.416
7.133333333333334,154827673.58699998
7.166666666666667,139397297.737
7.2,118490932.69
7.233333333333333,103376341.276
7.266666666666667,94807099.99
7.3,83876652.353
7.333333333333333,75113634.254
7.366666666666666,69192676.079
7.4,58412943.741
7.433333333333334,44633259.261
7.466666666666667,32095181.768
7.5,18530804.858
7.533333333333333,7865903.223999999
7.566666666666666,1916237.373
7.6,-4198497.615
7.633333333333334,-9818025.192
7.666666666666667,-12121816.191
7.7,-12373008.356
7.733333333333333,-6796542.293
7.766666666666667,-10729493.905
7.8,-13643323.019
7.833333333333333,-11590724.185
7.866666666666666,-4901835.677
7.9,1758345.155
7.933333333333334,14088291.997
7.966666666666667,29059345.031
8.0,43075867.838
8.033333333333333,49269548.935
8.066666666666666,48149949.571
8.1,45142820.51
8.133333333333333,39264923.849
8.166666666666666,29848806.121
8.2,18832235.456
8.233333333333333,11935216.297
8.266666666666667,5669766.01
8.3,3050190.5749999997
8.333333333333334,5138674.004
8.366666666666667,7456818.841
8.4,1865998.94
8.433333333333334,-4557343.5649999995
8.466666666666667,-9509417.675
8.5,-16514090.618999999
8.533333333333333,-31915758.792999998
8.566666666666666,-49047064.446
8.6,-64936763.111999996
8.633333333333333,-82233137.902
8.666666666666666,-89804787.447
8.7,-94175531.118
8.733333333333333,-99909889.399
8.766666666666667,-106656193.259
8.8,-109857099.133
8.833333333333334,-115060365.40799999
8.866666666666667,-109433660.912
8.9,-99486451.178
8.933333333333334,-82398207.039
8.966666666666667,-63939171.371
9.0,-50956124.9
9.033333333333333,-40449115.484
9.066666666666666,-39975438.83
9.1,-50023125.43
9.133333333333333,-80151831.392
9.166666666666666,-106979154.614
9.2,-129299372.704
9.233333333333333,-150299037.69799998
9.266666666666667,-178303375.636
9.3,-197810241.478
9.333333333333334,-213355448.032
9.366666666666667,-224128003.451
9.4,-235166104.873
9.433333333333334,-234204397.727
9.466666666666667,-219778790.537
9.5,-183492288.07299998
9.533333333333333,-156442480.362
9.566666666666666,-128725219.184
9.6,-99931420.156
9.633333333333333,-61865041.78
9.666666666666666,-36257794.788
9.7,-14267714.972
9.733333333333333,-23920671.027
9.766666666666667,-50862824.953
9.8,-58900974.232999995
9.833333333333334,-43147637.028
9.866666666666667,-53855600.176
9.9,-84314444.412
9.933333333333334,-85146967.016
9.966666666666667,-81852761.195
