Time (s),PPGG
0.0,56203309.454399996
0.03333333333333333,58138453.3428
0.06666666666666667,59858581.243599996
0.1,61204768.296399996
0.13333333333333333,61847479.12889999
0.16666666666666666,62579000.91279999
0.2,62777656.988299996
0.23333333333333334,62513561.2644
0.26666666666666666,61805410.78349999
0.3,61136991.517699994
0.3333333333333333,60809793.275699995
0.36666666666666664,60919638.399799995
0.4,61503920.9748
0.43333333333333335,62090540.680099994
0.4666666666666667,62543943.958299994
0.5,63030067.06069999
0.5333333333333333,63188991.9211
0.5666666666666667,63287151.393699996
0.6,63247420.1786
0.6333333333333333,63137575.05449999
0.6666666666666666,63308185.56639999
0.7,63527875.8146
0.7333333333333333,63855074.0566
0.7666666666666667,64278094.64089999
0.8,64820308.8705
0.8333333333333334,65427962.7485
0.8666666666666667,66033279.496199995
0.9,66876983.534499995
0.9333333333333333,67543065.67
0.9666666666666667,67444906.19739999
1.0,66580167.98639999
1.0333333333333334,65682709.95119999
1.0666666666666667,65075056.073199995
1.1,64764217.7433
1.1333333333333333,64722149.39789999
1.1666666666666667,64850691.564399995
1.2,65456008.31209999
1.2333333333333334,66171170.18389999
1.2666666666666666,63616686.765999995
1.3,61284230.72659999
1.3333333333333333,59867929.7648
1.3666666666666667,58996180.16289999
1.4,58472662.9757
1.4333333333333333,58140790.47309999
1.4666666666666666,58061328.042899996
1.5,58215578.642699994
1.5333333333333334,58453965.933299996
1.5666666666666667,58619902.184599996
1.6,58928403.38419999
1.6333333333333333,59367783.8806
1.6666666666666667,59748736.1195
1.7,54097555.05409999
1.7333333333333334,49603253.4872
1.7666666666666666,45954993.0889
1.8,43779124.779599994
1.8333333333333333,42725079.014299996
1.8666666666666667,42241293.0422
1.9,41956163.1456
1.9333333333333333,41888386.3669
1.9666666666666666,41872026.454799995
2.0,41790226.8943
2.033333333333333,41481725.694699995
2.066666666666667,41072727.89219999
2.1,40677752.87149999
2.1333333333333333,40663730.0897
2.1666666666666665,40703461.3048
2.2,40988591.2014
2.2333333333333334,41327475.0949
2.2666666666666666,41820609.588199995
2.3,42327766.863299996
2.3333333333333335,42874655.35349999
2.3666666666666667,43353767.065
2.4,43566445.922299996
2.433333333333333,42785844.4021
2.466666666666667,40731506.8684
2.5,38546290.03789999
2.533333333333333,37506267.0544
2.566666666666667,37494581.402899995
2.6,40245383.765999995
2.6333333333333333,43498669.143599994
2.6666666666666665,45263202.5201
2.7,46420082.018599994
2.7333333333333334,47214706.320599996
2.7666666666666666,47401676.7446
2.8,47576961.5171
2.8333333333333335,47579298.6474
2.8666666666666667,47824697.328899994
2.9,48198638.1769
2.933333333333333,48673075.627799995
2.966666666666667,49219964.11799999
3.0,49848652.168699995
3.033333333333333,50514734.30419999
3.066666666666667,51208862.003299996
3.1,51204187.742699996
3.1333333333333333,49855663.559599996
3.1666666666666665,47537230.30199999
3.2,45648829.0196
3.2333333333333334,44461566.827199996
3.2666666666666666,43928701.1188
3.3,43606177.137399994
3.3333333333333335,43634222.701
3.3666666666666667,43783799.040199995
3.4,43807170.3432
3.433333333333333,43381812.628599994
3.466666666666667,42351138.1663
3.5,41285406.7495
3.533333333333333,40832003.4713
3.566666666666667,41000276.8529
3.6,41276058.2283
3.6333333333333333,41813598.197299995
3.6666666666666665,42552131.372099996
3.7,43526714.7072
3.7333333333333334,44660222.9027
3.7666666666666666,45639480.498399995
3.8,45770359.7952
3.8333333333333335,44463903.957499996
3.8666666666666667,42444623.378299996
3.9,40701124.174499996
3.933333333333333,39782631.96659999
3.966666666666667,39373634.1641
4.0,39378308.4247
4.033333333333333,39574627.369899996
4.066666666666666,39848071.614999995
4.1,40095807.4268
4.133333333333334,40245383.765999995
4.166666666666667,40231360.98419999
4.2,40310823.4144
4.233333333333333,40626336.00489999
4.266666666666667,41011962.5044
4.3,41484062.824999996
4.333333333333333,42115088.006
4.366666666666666,43208864.98639999
4.4,44192796.8427
4.433333333333334,45136997.483899996
4.466666666666667,45938633.1768
4.5,47093175.544999994
4.533333333333333,48348214.5161
4.566666666666666,48313157.5616
4.6,47268460.317499995
4.633333333333334,45606760.6742
4.666666666666667,44545703.518
4.7,44132031.4549
4.733333333333333,44167088.40939999
4.766666666666667,44475589.609
4.8,45076232.096099995
4.833333333333333,46060163.9524
4.866666666666666,47233403.363
4.9,48689435.5399
4.933333333333334,50802201.331099994
4.966666666666667,53426798.65799999
5.0,56474416.569199994
5.033333333333333,59180813.456599995
5.066666666666666,61954987.1227
5.1,65091415.9853
5.133333333333334,67940377.821
5.166666666666667,70015749.52739999
5.2,71838711.16139999
5.233333333333333,73638301.49239999
5.266666666666667,75113030.71169999
5.3,76143705.174
5.333333333333333,76580748.5401
5.366666666666666,76169413.6073
5.4,74051973.5555
5.433333333333334,71039412.59879999
5.466666666666667,68947680.9803
5.5,67952063.4725
5.533333333333333,67613179.579
5.566666666666666,67456591.84889999
5.6,67412186.3732
5.633333333333334,67365443.7672
5.666666666666667,66881657.795099996
5.7,65575201.957399994
5.733333333333333,64037370.21999999
5.766666666666667,63002021.497099996
5.8,62013415.38019999
5.833333333333333,61412772.89309999
5.866666666666666,60978066.657299995
5.9,60562057.46389999
5.933333333333334,60171756.70379999
5.966666666666667,60066585.840299994
6.0,59973100.628299996
6.033333333333333,59673947.949899994
6.066666666666666,59157442.15359999
6.1,58790512.696499996
6.133333333333334,58414234.7182
6.166666666666667,55894808.25479999
6.2,52328347.416999996
6.233333333333333,49741144.174899995
6.266666666666667,49131153.1666
6.3,50753121.594799995
6.333333333333333,56558553.26
6.366666666666666,62628080.6491
6.4,66659630.4166
6.433333333333334,68515311.8748
6.466666666666667,68940669.5894
6.5,69305261.9162
6.533333333333333,69295913.395
6.566666666666666,69377712.95549999
6.6,69611425.9855
6.633333333333334,70221416.9938
6.666666666666667,70962287.2989
6.7,71583963.9587
6.733333333333333,72065412.80049999
6.766666666666667,72652032.5058
6.8,73044670.3962
6.833333333333333,73208269.5172
6.866666666666666,73133481.3476
6.9,73091413.00219999
6.933333333333334,72446365.0394
6.966666666666667,70148965.95449999
7.0,65409265.706099994
7.033333333333333,60136699.749299996
7.066666666666666,56708129.599199995
7.1,54824402.5774
7.133333333333334,54373336.4295
7.166666666666667,54604712.32919999
7.2,54878156.5743
7.233333333333333,55065126.99829999
7.266666666666667,54672489.10789999
7.3,53763345.42119999
7.333333333333333,52737345.2195
7.366666666666666,52524666.36219999
7.4,52732670.9589
7.433333333333334,53445495.700399995
7.466666666666667,54735591.625999995
7.5,55315199.9404
7.533333333333333,55174972.12239999
7.566666666666666,54340616.605299994
7.6,53791390.984799996
7.633333333333334,52424169.75929999
7.666666666666667,50986834.6248
7.7,51645905.369399995
7.733333333333333,52660219.919599995
7.766666666666667,53363696.1399
7.8,52120342.8203
7.833333333333333,48278100.607099995
7.866666666666666,43898318.424899995
7.9,39562941.718399994
7.933333333333334,35737059.41729999
7.966666666666667,30794028.832799997
8.0,25343840.973199997
8.033333333333333,20760728.454899997
8.066666666666666,19949744.240799997
8.1,19183165.5024
8.133333333333333,16051410.900399998
8.166666666666666,14240134.917899998
8.2,8897455.052099999
8.233333333333333,5936310.961999999
8.266666666666667,-785275.7808
8.3,-2683025.5843999996
8.333333333333334,-9086762.6064
8.366666666666667,-13513287.394599998
8.4,-22801043.2068
8.433333333333334,-25030665.512999997
8.466666666666667,-31511527.8349
8.5,-35634225.684099995
8.533333333333333,-43173808.031899996
8.566666666666666,-48897440.136599995
8.6,-57682712.9343
8.633333333333333,-61709588.441199996
8.666666666666666,-64093461.34719999
8.7,-65154518.5034
8.733333333333333,-66937748.922299996
8.766666666666667,-67627202.3608
8.8,-69129977.14369999
8.833333333333334,-69410432.7797
8.866666666666667,-69066874.6256
8.9,-68576077.26259999
8.933333333333334,-68884578.4622
8.966666666666667,-65932782.8933
9.0,-61908244.51669999
9.033333333333333,-60335355.82479999
9.066666666666666,-60297961.739999995
9.1,-59557091.43489999
9.133333333333333,-58865300.8661
9.166666666666666,-58409560.4576
9.2,-59470617.6138
9.233333333333333,-63009032.888
9.266666666666667,-67423872.0247
9.3,-71803654.2069
9.333333333333334,-75699650.417
9.366666666666667,-76580748.5401
9.4,-75180807.49039999
9.433333333333334,-73273709.16559999
9.466666666666667,-69567020.50979999
9.5,-66893343.4466
9.533333333333333,-64474413.5861
9.566666666666666,-63901816.662599996
9.6,-61716599.8321
9.633333333333333,-61396412.98099999
9.666666666666666,-59659925.16809999
9.7,-59776781.68309999
9.733333333333333,-58701701.74509999
9.766666666666667,-58334772.287999995
9.8,-56542193.347899996
9.833333333333334,-56345874.40269999
9.866666666666667,-57420954.34069999
9.9,-59311692.7534
9.933333333333334,-59830535.67999999
9.966666666666667,-60966381.005799994
