Time (s),PPGG
0.0,-30515828.4015
0.03333333333333333,-33842756.3019
0.06666666666666667,-37765948.677600004
0.1,-40261144.6029
0.13333333333333333,-40128219.4014
0.16666666666666666,-40185187.344900005
0.2,-41229599.642400004
0.23333333333333334,-43591870.3662
0.26666666666666666,-46937787.5811
0.3,-50997703.0212
0.3333333333333333,-52782698.5842
0.36666666666666664,-55965307.6944
0.4,-59664426.159
0.43333333333333335,-61198762.7706
0.4666666666666667,-63268598.0511
0.5,-66014452.9278
0.5333333333333333,-68285574.942
0.5666666666666667,-72489809.1723
0.6,-76625681.8704
0.6333333333333333,-80381768.2785
0.6666666666666666,-84920214.444
0.7,-90465094.278
0.7333333333333333,-95147859.2337
0.7666666666666667,-101072525.3577
0.8,-108751804.1415
0.8333333333333334,-114121982.2821
0.8666666666666667,-117069123.8925
0.9,-115701893.2485
0.9333333333333333,-112082529.9048
0.9666666666666667,-106412320.5951
1.0,-101026951.0029
1.0333333333333334,-98926732.81920001
1.0666666666666667,-98178553.8279
1.1,-99188785.3593
1.1333333333333333,-99469827.2139
1.1666666666666667,-97859533.3443
1.2,-97927894.8765
1.2333333333333334,-96868291.1274
1.2666666666666666,-98508967.90020001
1.3,-100947195.882
1.3333333333333333,-105098260.0317
1.3666666666666667,-108485953.7385
1.4,-112739560.1865
1.4333333333333333,-115789244.0952
1.4666666666666666,-115595553.0873
1.5,-114342258.3303
1.5333333333333334,-112249635.8724
1.5666666666666667,-110684916.3576
1.6,-112249635.8724
1.6333333333333333,-113529515.6697
1.6666666666666667,-110677320.6318
1.7,-105485642.0475
1.7333333333333334,-101399141.5671
1.7666666666666666,-100647164.7129
1.8,-101835895.8006
1.8333333333333333,-102565085.4774
1.8666666666666667,-101984012.4537
1.9,-99940762.21350001
1.9333333333333333,-94984551.12900001
1.9666666666666666,-91057560.8904
2.0,-88657311.5376
2.033333333333333,-89591585.811
2.066666666666667,-89132044.40010001
2.1,-84487258.0734
2.1333333333333333,-80795735.3346
2.1666666666666665,-79910833.2789
2.2,-78843633.804
2.2333333333333334,-77415637.3536
2.2666666666666666,-74373549.1707
2.3,-70742792.2383
2.3333333333333335,-70613664.8997
2.3666666666666667,-70568090.5449
2.4,-68935009.4979
2.433333333333333,-68767903.5303
2.466666666666667,-68099479.6599
2.5,-65410592.7267
2.533333333333333,-58221238.257
2.566666666666667,-47902444.7577
2.6,-39102796.418400005
2.6333333333333333,-32570472.2304
2.6666666666666665,-25757106.1878
2.7,-19403281.5561
2.7333333333333334,-12586117.6506
2.7666666666666666,-7948927.0497
2.8,-3266162.094
2.8333333333333335,1982484.4338
2.8666666666666667,4394127.3753
2.9,2799024.9573
2.933333333333333,-1944505.8048
2.966666666666667,-6038602.011
3.0,-7174163.0181
3.033333333333333,-7147577.9778
3.066666666666667,-6312048.1398
3.1,-5780347.3338
3.1333333333333333,-4903041.0039
3.1666666666666665,-4356148.7463
3.2,-4728339.3105
3.2333333333333334,-5810730.237
3.2666666666666666,-6543717.7767
3.3,-6650057.9379
3.3333333333333335,-5894283.2208
3.3666666666666667,-6255080.1963
3.4,-6281665.2366
3.433333333333333,-7291896.768
3.466666666666667,-10125102.4914
3.5,-13258339.3839
3.533333333333333,-15624407.9706
3.566666666666667,-18070231.6782
3.6,-20178045.587700002
3.6333333333333333,-22095966.3522
3.6666666666666665,-24074652.923100002
3.7,-25445681.43
3.7333333333333334,-27549697.4766
3.7666666666666666,-27280049.2107
3.8,-26945837.2755
3.8333333333333335,-28278887.1534
3.8666666666666667,-27754782.073200002
3.9,-26349572.8002
3.933333333333333,-26307796.3083
3.966666666666667,-26736954.816
4.0,-29725872.9183
4.033333333333333,-35228976.2604
4.066666666666666,-40340899.7238
4.1,-43907092.9869
4.133333333333334,-47758125.9675
4.166666666666667,-52535837.4957
4.2,-55726042.331700005
4.233333333333333,-60382222.2471
4.266666666666667,-66162569.5809
4.3,-71490971.2296
4.333333333333333,-75858513.5646
4.366666666666666,-80009577.7143
4.4,-82451603.559
4.433333333333334,-85603829.766
4.466666666666667,-88923161.94060001
4.5,-91805739.88170001
4.533333333333333,-96101122.8216
4.566666666666666,-102177703.4616
4.6,-107654221.7634
4.633333333333334,-113351016.1134
4.666666666666667,-117794515.7064
4.7,-121645548.687
4.733333333333333,-123012779.331
4.766666666666667,-124387605.7008
4.8,-124444573.6443
4.833333333333333,-123798936.95130001
4.866666666666666,-122841875.50050001
4.9,-122196238.8075
4.933333333333334,-121406283.3243
4.966666666666667,-105527418.5394
5.0,-97027801.3692
5.033333333333333,-91912080.0429
5.066666666666666,-88657311.5376
5.1,-84946799.4843
5.133333333333334,-83123825.2923
5.166666666666667,-82789613.3571
5.2,-83682111.1386
5.233333333333333,-83404867.1469
5.266666666666667,-83150410.3326
5.3,-82216136.0592
5.333333333333333,-80769150.2943
5.366666666666666,-80146300.77870001
5.4,-79880450.3757
5.433333333333334,-76891532.27340001
5.466666666666667,-74248219.69500001
5.5,-72349288.245
5.533333333333333,-70541505.5046
5.566666666666666,-72189778.0032
5.6,-70332623.0451
5.633333333333334,-68171639.055
5.666666666666667,-65816964.057000004
5.7,-64814328.2514
5.733333333333333,-65015614.9851
5.766666666666667,-66056229.419700004
5.8,-68931211.635
5.833333333333333,-72869595.4623
5.866666666666666,-75771162.71790001
5.9,-74491282.9206
5.933333333333334,-68437489.458
5.966666666666667,-65668847.403900005
6.0,-67362694.2573
6.033333333333333,-68247596.31300001
6.066666666666666,-66295494.782400005
6.1,-63614203.575
6.133333333333334,-60925316.6418
6.166666666666667,-58247823.2973
6.2,-58145280.999
6.233333333333333,-57568005.8382
6.266666666666667,-55486776.969000004
6.3,-53158687.0113
6.333333333333333,-53367569.4708
6.366666666666666,-53667600.6399
6.4,-55972903.4202
6.433333333333334,-57799675.4751
6.466666666666667,-57906015.6363
6.5,-59277044.1432
6.533333333333333,-60541732.4889
6.566666666666666,-61779835.794300005
6.6,-62402685.3099
6.633333333333334,-63090098.4948
6.666666666666667,-63374938.2123
6.7,-63997787.7279
6.733333333333333,-63701554.4217
6.766666666666667,-61889973.8184
6.8,-60587306.8437
6.833333333333333,-61259528.577
6.866666666666666,-61046848.2546
6.9,-58312386.9666
6.933333333333334,-54689225.76
6.966666666666667,-49060792.9422
7.0,-40857409.0782
7.033333333333333,-31921037.6745
7.066666666666666,-25327947.6801
7.1,-19346313.6126
7.133333333333334,-13691295.7545
7.166666666666667,-9179434.6293
7.2,-5548677.6969
7.233333333333333,-2943343.7475
7.266666666666667,-3118045.4409000003
7.3,-3911798.787
7.333333333333333,-4857466.6491
7.366666666666666,-4173851.3271
7.4,-3896607.3354
7.433333333333334,-3813054.3516
7.466666666666667,-2749652.7396
7.5,-979848.6282
7.533333333333333,-402573.4674
7.566666666666666,-1473570.8052
7.6,-2358472.8609
7.633333333333334,-2753450.6025
7.666666666666667,-4094096.2062
7.7,-4846073.0604
7.733333333333333,-4568829.0687
7.766666666666667,-3353512.9407
7.8,-2461015.1592
7.833333333333333,-1724229.7566
7.866666666666666,-1807782.7404
7.9,-1705240.4421
7.933333333333334,-2130601.0869
7.966666666666667,-2426834.3931
8.0,-2935748.0217
8.033333333333333,-3118045.4409000003
8.066666666666666,-2692684.7961
8.1,-2890173.6669
8.133333333333333,-3961171.0047
8.166666666666666,-4663775.6412
8.2,-5666411.4468
8.233333333333333,-6596887.8573
8.266666666666667,-7778023.2192
8.3,-7557747.171
8.333333333333334,-7345066.8486
8.366666666666667,-7413428.3808
8.4,-7212141.6471
8.433333333333334,-7797012.5337000005
8.466666666666667,-8609755.1943
8.5,-8469234.267
8.533333333333333,-7459002.7356
8.566666666666666,-4276393.6254
8.6,10945440.8778
8.633333333333333,22001019.7797
8.666666666666666,25863446.349
8.7,26322987.7599
8.733333333333333,27086358.202800002
8.766666666666667,32452738.4805
8.8,55931126.9283
8.833333333333334,85938041.70120001
8.866666666666667,101843491.5264
8.9,108277071.279
8.933333333333334,111197627.84910001
8.966666666666667,113651047.2825
9.0,115675308.20820001
9.033333333333333,118998438.2457
9.066666666666666,124444573.6443
9.1,118698407.0766
9.133333333333333,117103304.6586
9.166666666666666,118117334.0529
9.2,121729101.6708
9.233333333333333,123312810.5001
9.266666666666667,120130201.3899
9.3,103560125.5572
9.333333333333334,94255361.4522
9.366666666666667,94137627.7023
9.4,95064306.2499
9.433333333333334,94073064.033
9.466666666666667,92603291.0907
9.5,91988037.3009
9.533333333333333,91642431.777
9.566666666666666,91433549.3175
9.6,91300624.116
9.633333333333333,91338602.745
9.666666666666666,80647618.6815
9.7,78463847.514
9.733333333333333,77411839.4907
9.766666666666667,77389052.3133
9.8,78615762.03
9.833333333333334,79724737.9968
9.866666666666667,79409515.3761
9.9,78668932.1106
9.933333333333334,79105686.3441
9.966666666666667,79929822.5934
