Time (s),PPGG
0.0,392844348.82759994
0.03333333333333333,423830879.1396
0.06666666666666667,431883773.93579996
0.1,450998139.43639994
0.13333333333333333,469229749.13159996
0.16666666666666666,464906047.2276
0.2,432892637.71339995
0.23333333333333334,388862939.99099994
0.26666666666666666,347967926.149
0.3,321683421.6576
0.3333333333333333,310099503.63979995
0.36666666666666664,277779831.90739995
0.4,249567676.98379996
0.43333333333333335,237893681.84299996
0.4666666666666667,224165928.29779997
0.5,201736724.67079997
0.5333333333333333,184441917.05479997
0.5666666666666667,168732466.80359998
0.6,162409052.769
0.6333333333333333,162571191.59039998
0.6666666666666666,168264065.764
0.7,192332673.0296
0.7333333333333333,203159943.2142
0.7666666666666667,223895696.9288
0.8,250900818.4042
0.8333333333333334,284913940.04899997
0.8666666666666667,313036017.84959996
0.9,343806363.0664
0.9333333333333333,376306189.0448
0.9666666666666667,406085685.9086
1.0,441449964.39839995
1.0333333333333334,472976957.44839996
1.0666666666666667,494379281.87319994
1.1,540732969.369
1.1333333333333333,564243098.472
1.1666666666666667,590311417.8682
1.2,553559951.6841999
1.2333333333333334,516574284.98039997
1.2666666666666666,484398736.64479995
1.3,456492843.93939996
1.3333333333333333,438459403.9148
1.3666666666666667,409959002.19759995
1.4,383098004.11899996
1.4333333333333333,356723422.5046
1.4666666666666666,333825817.838
1.5,305361446.96999997
1.5333333333333334,296137549.57479995
1.5666666666666667,280410083.899
1.6,271168171.07919997
1.6333333333333333,258575389.28379998
1.6666666666666667,255134443.18519998
1.7,268916243.0042
1.7333333333333334,265042926.71519998
1.7666666666666666,278356325.4946
1.8,283851029.99759996
1.8333333333333333,298785816.991
1.8666666666666667,308225899.48139995
1.9,325448645.399
1.9333333333333333,340221293.571
1.9666666666666666,361497510.0236
2.0,385187793.37259996
2.033333333333333,410499464.9356
2.066666666666667,414769120.56579995
2.1,428803136.32919997
2.1333333333333333,439252082.5972
2.1666666666666665,443395630.25519997
2.2,454673286.0548
2.2333333333333334,470040443.23859996
2.2666666666666666,468527147.57219994
2.3,443485707.37819993
2.3333333333333335,392213808.96659994
2.3666666666666667,359209551.0994
2.4,335140943.83379996
2.433333333333333,321467236.5624
2.466666666666667,303902197.57739997
2.5,288895348.8856
2.533333333333333,270321446.12299997
2.566666666666667,257476448.3832
2.6,253981456.01079997
2.6333333333333333,236146185.65679997
2.6666666666666665,224310051.6946
2.7,218995501.4376
2.7333333333333334,220652920.50079998
2.7666666666666666,228723830.72159997
2.8,243712663.9888
2.8333333333333335,251981743.88019997
2.8666666666666667,261872211.98559996
2.9,278608541.43899995
2.933333333333333,297470690.9952
2.966666666666667,320836696.7014
3.0,334438342.2744
3.033333333333333,354975926.31839997
3.066666666666667,353192399.283
3.1,362722558.8964
3.1333333333333333,375693664.6084
3.1666666666666665,383332204.63879997
3.2,394537798.73999995
3.2333333333333334,414913243.9626
3.2666666666666666,424407372.72679996
3.3,390196081.41139996
3.3333333333333335,326691709.6964
3.3666666666666667,272267111.9798
3.4,235299460.70059997
3.433333333333333,196332097.29079998
3.466666666666667,156770224.8692
3.5,126089956.77539998
3.533333333333333,91230110.17439999
3.566666666666667,58297914.0056
3.6,25095486.4678
3.6333333333333333,2432082.321
3.6666666666666665,-18393748.516599998
3.7,-37922468.783
3.7333333333333334,-53199548.84379999
3.7666666666666666,-57685389.569199994
3.8,-62819785.580199994
3.8333333333333335,-55703692.863199994
3.8666666666666667,-50767466.5228
3.9,-43291065.3138
3.933333333333333,-38444916.0964
3.966666666666667,-24663116.2774
4.0,-14358293.4062
4.033333333333333,4071485.9595999997
4.066666666666666,9205881.9706
4.1,22086910.5596
4.133333333333334,37652237.414
4.166666666666667,60243579.862399995
4.2,82979045.7076
4.233333333333333,99697359.7364
4.266666666666667,118487447.59419999
4.3,138466553.47559997
4.333333333333333,125549494.03739999
4.366666666666666,82870953.16
4.4,21438355.273999996
4.433333333333334,-33526705.1806
4.466666666666667,-71593297.36039999
4.5,-102201503.7558
4.533333333333333,-132827725.57579999
4.566666666666666,-156319839.25419998
4.6,-185666965.9276
4.633333333333334,-203448190.00779998
4.666666666666667,-218797331.767
4.7,-232723254.98279998
4.733333333333333,-248270566.41259998
4.766666666666667,-260557085.98979998
4.8,-265403235.2072
4.833333333333333,-268700057.909
4.866666666666666,-269997168.4802
4.9,-274897363.97139996
4.933333333333334,-267006607.99659997
4.966666666666667,-251279142.32079998
5.0,-230939727.94739997
5.033333333333333,-207609753.09039998
5.066666666666666,-194872847.89819998
5.1,-171705011.8626
5.133333333333334,-151437659.1876
5.166666666666667,-116289565.79299998
5.2,-93644177.07079999
5.233333333333333,-65468052.99639999
5.266666666666667,-41021121.8142
5.3,-18303671.3936
5.333333333333333,7908771.3993999995
5.366666666666666,11872164.811399998
5.4,-28572463.415599998
5.433333333333334,-101697071.867
5.466666666666667,-153005001.1278
5.5,-186567737.1576
5.533333333333333,-205537979.26139998
5.566666666666666,-232128745.971
5.6,-242001198.65179998
5.633333333333334,-254846196.39159998
5.666666666666667,-262790998.6402
5.7,-280392068.4744
5.733333333333333,-294083791.17039996
5.766666666666667,-297903061.1856
5.8,-304100367.24799997
5.833333333333333,-297975122.884
5.866666666666666,-292606526.35319996
5.9,-283256520.98579997
5.933333333333334,-278878772.80799997
5.966666666666667,-255062381.4868
6.0,-244054957.05619997
6.033333333333333,-199466781.17119998
6.066666666666666,-164697011.6932
6.1,-161274081.0192
6.133333333333334,-126396218.9936
6.166666666666667,-105192064.23939998
6.2,-76709677.9468
6.233333333333333,-49308217.1302
6.266666666666667,-23077758.9126
6.3,3567054.0708
6.333333333333333,-17078622.5208
6.366666666666666,-74836073.7884
6.4,-148501144.97779998
6.433333333333334,-201556570.42479998
6.466666666666667,-247748119.09919998
6.5,-290012305.2108
6.533333333333333,-326655678.8472
6.566666666666666,-364794332.7254
6.6,-392231824.39119995
6.633333333333334,-420606118.13619995
6.666666666666667,-435919229.0462
6.7,-463284659.01359993
6.733333333333333,-480561451.205
6.766666666666667,-492992094.17899996
6.8,-491136505.44519997
6.833333333333333,-488199991.23539996
6.866666666666666,-478273492.2808
6.9,-460996700.08939993
6.933333333333334,-451052185.71019995
6.966666666666667,-444692740.8264
7.0,-439035897.502
7.033333333333333,-439522313.96619993
7.066666666666666,-434405933.37979996
7.1,-422785984.5128
7.133333333333334,-413003608.955
7.166666666666667,-404320174.29779994
7.2,-378540101.69519997
7.233333333333333,-343211854.0546
7.266666666666667,-259710361.03359997
7.3,-184207716.535
7.333333333333333,-146105093.50599998
7.366666666666666,-176425053.10779998
7.4,-242235399.17159998
7.433333333333334,-313666557.71059996
7.466666666666667,-375225263.5688
7.5,-412373069.094
7.533333333333333,-451574633.0236
7.566666666666666,-485119353.6288
7.6,-515835652.57179993
7.633333333333334,-534751848.4018
7.666666666666667,-553127581.4937999
7.7,-568801000.8958
7.733333333333333,-578169021.6877999
7.766666666666667,-589662862.5826
7.8,-585843592.5674
7.833333333333333,-590311417.8682
7.866666666666666,-584438389.4485999
7.9,-581141566.7468
7.933333333333334,-568674892.9236
7.966666666666667,-554478738.3388
8.0,-537147899.8736
8.033333333333333,-508485359.335
8.066666666666666,-499873986.37619996
8.1,-477805091.2412
8.133333333333333,-464113368.54519993
8.166666666666666,-448097656.07579994
8.2,-435685028.52639997
8.233333333333333,-430694755.9122
8.266666666666667,-423812863.715
8.3,-407346765.6306
8.333333333333334,-396483464.59679997
8.366666666666667,-420029624.54899997
8.4,-461483116.55359995
8.433333333333334,-499693832.13019997
8.466666666666667,-525185657.9392
8.5,-539904259.8374
8.533333333333333,-544696362.7809999
8.566666666666666,-550046943.8872
8.6,-551812455.4979999
8.633333333333333,-545579118.5863999
8.666666666666666,-548785864.1652
8.7,-549722666.2443999
8.733333333333333,-547362645.6218
8.766666666666667,-539616013.0438
8.8,-529185082.20039994
8.833333333333334,-512070428.83039993
8.866666666666667,-494361266.44859993
8.9,-474183990.89659995
8.933333333333334,-445539465.7826
8.966666666666667,-423704771.16739994
9.0,-386088564.6026
9.033333333333333,-353768892.8702
9.066666666666666,-337104625.1152
9.1,-324367719.923
9.133333333333333,-298407493.07439995
9.166666666666666,-277437538.84
9.2,-245406113.90119997
9.233333333333333,-221859953.94899997
9.266666666666667,-204457053.78539997
9.3,-224796468.15879998
9.333333333333334,-272573374.19799995
9.366666666666667,-321269066.8918
9.4,-358110610.19879997
9.433333333333334,-389547526.12579995
9.466666666666667,-416030200.28779995
9.5,-436964123.673
9.533333333333333,-448548041.69079995
9.566666666666666,-458222324.701
9.6,-467284083.27479994
9.633333333333333,-476489965.24539995
9.666666666666666,-482308947.39119995
9.7,-483678119.6608
9.733333333333333,-468545162.99679995
9.766666666666667,-456096504.59819996
9.8,-416588678.45039994
9.833333333333334,-356237006.04039997
9.866666666666667,-309180716.9852
9.9,-255116427.76059997
9.933333333333334,-228165352.559
9.966666666666667,-208834801.96319997
