Time (s),PPGG
0.0,-175712546.2806
0.03333333333333333,-169461941.6199
0.06666666666666667,-165506869.0365
0.1,-161661107.5044
0.13333333333333333,-155221692.84600002
0.16666666666666666,-151713801.8361
0.2,-151346119.209
0.23333333333333334,-147947539.2504
0.26666666666666666,-142799982.47100002
0.3,-137115807.8034
0.3333333333333333,-128907541.58760001
0.36666666666666664,-121365079.0479
0.4,-113762992.2984
0.43333333333333335,-102295269.2802
0.4666666666666667,-94096940.43270001
0.5,-87190469.4642
0.5333333333333333,-83463956.35170001
0.5666666666666667,-80095188.498
0.6,-77163664.8495
0.6333333333333333,-71767673.8626
0.6666666666666666,-61661370.3015
0.7,-51763751.474700004
0.7333333333333333,-44181539.4618
0.7666666666666667,-42521998.9557
0.8,-39222792.6801
0.8333333333333334,-37970684.2743
0.8666666666666667,-44221288.935
0.9,-56106381.4218
0.9333333333333333,-68736776.5311
0.9666666666666667,-78077902.7331
1.0,-89476064.1732
1.0333333333333334,-101728839.2871
1.0666666666666667,-107740947.1086
1.1,-107343452.3766
1.1333333333333333,-104054183.4693
1.1666666666666667,-103457941.3713
1.2,-108396813.4164
1.2333333333333334,-111984203.3727
1.2666666666666666,-112163076.0021
1.3,-111000403.911
1.3333333333333333,-107313640.2717
1.3666666666666667,-101172346.6623
1.4,-89764247.8539
1.4333333333333333,-82380783.207
1.4666666666666666,-80800741.6473
1.5,-81267797.9574
1.5333333333333334,-79946127.9735
1.5666666666666667,-75136441.7163
1.6,-72075732.2799
1.6333333333333333,-68587716.0066
1.6666666666666667,-66083499.195
1.7,-60906130.3107
1.7333333333333334,-54794648.8062
1.7666666666666666,-45065965.2405
1.8,-33508805.9076
1.8333333333333333,-21186469.2156
1.8666666666666667,-12958328.2632
1.9,-7602086.7495
1.9333333333333333,-7164842.5443
1.9666666666666666,-16088599.2777
2.0,-23551562.871
2.033333333333333,-28758743.8602
2.066666666666667,-29504046.4827
2.1,-31561081.7208
2.1333333333333333,-33429306.9612
2.1666666666666665,-34025549.059200004
2.2,-33667803.800400004
2.2333333333333334,-33359745.3831
2.2666666666666666,-34870225.3647
2.3,-36698701.1319
2.3333333333333335,-36519828.5025
2.3666666666666667,-33836739.0615
2.4,-28738869.1236
2.433333333333333,-24366427.0716
2.466666666666667,-19735613.4438
2.5,-15522169.2846
2.533333333333333,-8436825.6867
2.566666666666667,-2404843.1286
2.6,6767347.8123
2.6333333333333333,13534695.6246
2.6666666666666665,23124256.0341
2.7,30557407.5225
2.7333333333333334,40315903.1931
2.7666666666666666,59624209.8
2.8,83235396.8808
2.8333333333333335,107323577.64
2.8666666666666667,128251675.2798
2.9,146258186.6394
2.933333333333333,151197058.6845
2.966666666666667,148931338.7121
3.0,143028541.9419
3.033333333333333,141011256.17700002
3.066666666666667,149010837.65850002
3.1,151803238.1508
3.1333333333333333,153989459.1768
3.1666666666666665,160210251.7326
3.2,167216096.3841
3.2333333333333334,166351545.342
3.2666666666666666,159683571.2127
3.3,155907371.2587
3.3333333333333335,148146286.6164
3.3666666666666667,136817686.7544
3.4,121484327.4675
3.433333333333333,111298524.96000001
3.466666666666667,100655603.5107
3.5,91721909.409
3.533333333333333,78008341.155
3.566666666666667,65040075.5235
3.6,59683834.0098
3.6333333333333333,56305128.7878
3.6666666666666665,52797237.7779
3.7,55033145.6454
3.7333333333333334,59644084.5366
3.7666666666666666,62963165.5488
3.8,70356567.564
3.8333333333333335,74053268.5716
3.8666666666666667,69869636.5173
3.9,56573437.7319
3.933333333333333,25111729.6941
3.966666666666667,-1152734.7228
4.0,-18791563.4553
4.033333333333333,-27367512.2982
4.066666666666666,-30974776.991100002
4.1,-37205506.9152
4.133333333333334,-48285672.5697
4.166666666666667,-58988218.2288
4.2,-63440159.2272
4.233333333333333,-68130597.0648
4.266666666666667,-72691849.1145
4.3,-79558570.6098
4.333333333333333,-83086336.3563
4.366666666666666,-83553392.6664
4.4,-84288757.9206
4.433333333333334,-84487505.2866
4.466666666666667,-83056524.2514
4.5,-81824290.5822
4.533333333333333,-79568507.9781
4.566666666666666,-74659448.0379
4.6,-71906797.0188
4.633333333333334,-67325670.2325
4.666666666666667,-64264960.7961
4.7,-61402998.7257
4.733333333333333,-60031641.9003
4.766666666666667,-57209429.3031
4.8,-55848009.846
4.833333333333333,-62615357.6583
4.866666666666666,-74818445.9307
4.9,-93172765.1808
4.933333333333334,-107502450.2694
4.966666666666667,-118433555.3994
5.0,-125956143.2025
5.033333333333333,-137712049.9014
5.066666666666666,-143068291.4151
5.1,-149060524.5
5.133333333333334,-158451337.5435
5.166666666666667,-166788789.5472
5.2,-176587034.691
5.233333333333333,-184030123.5477
5.266666666666667,-189505613.481
5.3,-193858180.7964
5.333333333333333,-196521395.5008
5.366666666666666,-200088910.7205
5.4,-199939850.196
5.433333333333334,-200695090.1868
5.466666666666667,-198846739.683
5.5,-198498931.7925
5.533333333333333,-194981103.4143
5.566666666666666,-190300602.945
5.6,-189167742.9588
5.633333333333334,-186971584.5645
5.666666666666667,-183165572.5056
5.7,-179280061.5003
5.733333333333333,-177312462.5769
5.766666666666667,-174997055.763
5.8,-177292587.8403
5.833333333333333,-177898767.3066
5.866666666666666,-185719476.1587
5.9,-198856677.0513
5.933333333333334,-219854336.2692
5.966666666666667,-243097840.7229
6.0,-260925479.4531
6.033333333333333,-279617669.22540003
6.066666666666666,-286852073.3478
6.1,-295765892.7129
6.133333333333334,-301092322.1217
6.166666666666667,-304729398.9195
6.2,-313066850.9232
6.233333333333333,-321950858.1834
6.266666666666667,-325617747.0861
6.3,-324594198.1512
6.333333333333333,-322954532.3817
6.366666666666666,-312639544.0863
6.4,-298985600.0421
6.433333333333334,-290687897.5116
6.466666666666667,-283026186.5523
6.5,-278146938.717
6.533333333333333,-274678797.1803
6.566666666666666,-271329904.0632
6.6,-266639466.2256
6.633333333333334,-262793704.6935
6.666666666666667,-256791534.2403
6.7,-253701012.699
6.733333333333333,-247082725.41120002
6.766666666666667,-238457089.7268
6.8,-232415169.8004
6.833333333333333,-223948532.0088
6.866666666666666,-215909201.0541
6.9,-208078554.8337
6.933333333333334,-193858180.7964
6.966666666666667,-166421106.9201
7.0,-135217770.4581
7.033333333333333,26840831.7783
7.066666666666666,250352119.5819
7.1,319883885.577
7.133333333333334,325617747.0861
7.166666666666667,300684890.0214
7.2,265655666.7639
7.233333333333333,226601809.3449
7.266666666666667,188223692.9703
7.3,136370505.1809
7.333333333333333,140126830.3983
7.366666666666666,138516976.7337
7.4,124604661.1137
7.433333333333334,107969506.5795
7.466666666666667,91513224.6747
7.5,76607172.2247
7.533333333333333,75037068.0333
7.566666666666666,73844583.8373
7.6,59703708.7464
7.633333333333334,53731350.3981
7.666666666666667,41448763.1793
7.7,27407261.7714
7.733333333333333,-685678.4127
7.766666666666667,-22885759.1949
7.8,-50770014.6447
7.833333333333333,-62973102.9171
7.866666666666666,-66699616.0296
7.9,-70505628.08850001
7.933333333333334,-80919990.0669
7.966666666666667,-90579112.0545
8.0,-99920238.2565
8.033333333333333,-109112303.934
8.066666666666666,-127695182.655
8.1,-147838228.1991
8.133333333333333,-161909541.7119
8.166666666666666,-169114133.7294
8.2,-183334507.7667
8.233333333333333,-195080477.0973
8.266666666666667,-203288743.3131
8.3,-207512124.8406
8.333333333333334,-209787782.1813
8.366666666666667,-212987614.7739
8.4,-215670704.21490002
8.433333333333334,-217578678.9285
8.466666666666667,-220699012.5747
8.5,-225220515.1512
8.533333333333333,-229374335.1006
8.566666666666666,-229871203.5156
8.6,-232097174.0148
8.633333333333333,-229841391.4107
8.666666666666666,-226005567.2469
8.7,-221543688.8802
8.733333333333333,-213881977.9209
8.766666666666667,-205703523.81
8.8,-196272961.2933
8.833333333333334,-183314633.0301
8.866666666666667,-171817097.907
8.9,-157934594.3919
8.933333333333334,-133816601.52780001
8.966666666666667,-99035812.4778
9.0,-68756651.2677
9.033333333333333,-43406424.7344
9.066666666666666,-24893107.5915
9.1,-20629976.5908
9.133333333333333,-27794819.1351
9.166666666666666,-47788804.1547
9.2,-50620954.1202
9.233333333333333,-52986047.7756
9.266666666666667,-51952561.4724
9.3,-51952561.4724
9.333333333333334,-45582708.3921
9.366666666666667,-36837824.2881
9.4,-22816197.6168
9.433333333333334,-15363171.3918
9.466666666666667,-17082336.1077
9.5,-22518076.5678
9.533333333333333,-1609853.6646
9.566666666666666,17181709.7907
9.6,28430810.7063
9.633333333333333,40166842.6686
9.666666666666666,41329514.7597
9.7,44310725.2497
9.733333333333333,46308136.278
9.766666666666667,49726590.9732
9.8,42830057.373
9.833333333333334,29066802.2775
9.866666666666667,26264464.4169
9.9,44340537.3546
9.933333333333334,65467382.3604
9.966666666666667,81188299.011
