Time (s),PPGG
0.0,-336285634.44839996
0.03333333333333333,-232153230.37469998
0.06666666666666667,-134707824.7882
0.1,13681950.8521
0.13333333333333333,145222250.0411
0.16666666666666666,184772326.61999997
0.2,212708142.66849998
0.23333333333333334,284637369.817
0.26666666666666666,302322721.07919997
0.3,312573185.8655
0.3333333333333333,332590187.916
0.36666666666666664,329246688.6724
0.4,377859407.9379
0.43333333333333335,397304495.64409995
0.4666666666666667,162291693.5479
0.5,-186708036.70839998
0.5333333333333333,-424756384.1705
0.5666666666666667,-688408896.8928
0.6,-916646713.6796
0.6333333333333333,-1136965716.4684
0.6666666666666666,-1270177765.2791998
0.7,-1348706004.0927
0.7333333333333333,-1372990367.0198998
0.7666666666666667,-1409636878.4661999
0.8,-1441532101.5137
0.8333333333333334,-1348837984.326
0.8666666666666667,-1274973047.0891
0.9,-1210258739.3609998
0.9333333333333333,-1130718652.0922
0.9666666666666667,-1044843513.625
1.0,-971814451.199
1.0333333333333334,-826856161.6244999
1.0666666666666667,-747756008.4667
1.1,-661352949.0662999
1.1333333333333333,-598442371.1933
1.1666666666666667,-500381057.85139996
1.2,-223794482.26569998
1.2333333333333334,467122039.05979997
1.2666666666666666,1008240995.5898
1.3,1301589060.8046
1.3333333333333333,1441532101.5137
1.3666666666666667,1417907639.753
1.4,1108765939.9533
1.4333333333333333,582736723.4305999
1.4666666666666666,93485998.58749999
1.5,-284989317.1058
1.5333333333333334,-517406507.9471
1.5666666666666667,-631173469.0517
1.6,-764957432.2068
1.6333333333333333,-848412933.0634999
1.6666666666666667,-899269316.2951
1.7,-978457456.2751
1.7333333333333334,-1050914604.3568
1.7666666666666666,-1101639007.3551
1.8,-1092400391.0240998
1.8333333333333333,-1075638901.395
1.8666666666666667,-1017523605.3319
1.9,-988399967.1837
1.9333333333333333,-992887295.1158999
1.9666666666666666,-992051420.305
2.0,-972782306.2432
2.033333333333333,-912027405.5141
2.066666666666667,-884795484.0431999
2.1,-837766527.5773
2.1333333333333333,-806311238.6408
2.1666666666666665,-695711803.1353999
2.2,-610716532.8902
2.2333333333333334,-528976775.0664
2.2666666666666666,-459159231.6507
2.3,-402407731.33169997
2.3333333333333335,-308965726.15529996
2.3666666666666667,-249750594.81469998
2.4,-196166620.09489998
2.433333333333333,-199158172.0497
2.466666666666667,-368356831.1403
2.5,-577589494.3319
2.533333333333333,-738781352.6022999
2.566666666666667,-818893354.2154
2.6,-888754891.0422
2.6333333333333333,-1069831771.1298
2.6666666666666665,-1177175694.2138
2.7,-1212942337.4380999
2.7333333333333334,-1242197955.8195999
2.7666666666666666,-1337355704.0289
2.8,-1346814287.4154
2.8333333333333335,-1329524876.8530998
2.8666666666666667,-1238986436.8093
2.9,-1150251726.6206
2.933333333333333,-1021263045.2753999
2.966666666666667,-875952808.4121
3.0,-741508944.0905
3.033333333333333,-517934428.8803
3.066666666666667,-478384352.30139995
3.1,-439538170.30009997
3.1333333333333333,-424624403.93719995
3.1666666666666665,-381466867.64809996
3.2,-358282339.9984
3.2333333333333334,-321195894.4411
3.2666666666666666,-281645817.86219996
3.3,-196034639.86159998
3.3333333333333335,-100788904.8301
3.3666666666666667,-25208224.5603
3.4,-82135698.5237
3.433333333333333,-287101000.8386
3.466666666666667,-470421544.89229995
3.5,-593251148.6834999
3.533333333333333,-660737041.3109
3.566666666666667,-739353266.9466
3.6,-795400872.688
3.6333333333333333,-756114756.5756999
3.6666666666666665,-730774551.7821
3.7,-731830393.6485
3.7333333333333334,-781191000.9027
3.7666666666666666,-803011732.8082999
3.8,-805695330.8853999
3.8333333333333335,-739001319.6578
3.8666666666666667,-661132982.0108
3.9,-593075175.0390999
3.933333333333333,-493650065.95309997
3.966666666666667,-401835816.9874
4.0,-330698471.2387
4.033333333333333,-237476433.1178
4.066666666666666,-190227509.5964
4.1,-106772008.73969999
4.133333333333334,-33171031.9694
4.166666666666667,18961160.1841
4.2,89394611.3552
4.233333333333333,163259548.5921
4.266666666666667,256481586.713
4.3,235276762.5628
4.333333333333333,54639816.5862
4.366666666666666,-230745441.21949998
4.4,-430431534.20239997
4.433333333333334,-524049513.0232
4.466666666666667,-561751866.3359
4.5,-583176657.5416
4.533333333333333,-586212202.9074999
4.566666666666666,-570902495.8447
4.6,-525545289.0006
4.633333333333334,-564875398.5239999
4.666666666666667,-622814720.9426999
4.7,-687089094.5597999
4.733333333333333,-688804837.5927
4.766666666666667,-655501825.39
4.8,-603149666.181
4.833333333333333,-504032510.9727
4.866666666666666,-451416391.29709995
4.9,-376011684.6717
4.933333333333334,-348867750.023
4.966666666666667,-341212896.4916
5.0,-335713720.1041
5.033333333333333,-261672809.2228
5.066666666666666,-226918014.4538
5.1,-176721532.38869998
5.133333333333334,-102284680.80749999
5.166666666666667,-52660113.0867
5.2,-105892140.51769999
5.233333333333333,-377859407.9379
5.266666666666667,-617359537.9663
5.3,-718412403.263
5.333333333333333,-786250243.1791999
5.366666666666666,-805299390.1854999
5.4,-827076128.68
5.433333333333334,-718720357.1407
5.466666666666667,-642347795.4711
5.5,-602885705.7143999
5.533333333333333,-602445771.6034
5.566666666666666,-557220544.9926
5.6,-535135852.62039995
5.633333333333334,-494925874.875
5.666666666666667,-407906907.71919996
5.7,-304698365.2786
5.733333333333333,-184904306.85329998
5.766666666666667,-90802400.5104
5.8,-1759736.444
5.833333333333333,46589022.354899995
5.866666666666666,88822697.01089999
5.9,149357630.68449998
5.933333333333334,230525474.16399997
5.966666666666667,319964078.9303
6.0,314816849.8316
6.033333333333333,129120661.57849999
6.066666666666666,-98149300.16409999
6.1,-221330851.24409997
6.133333333333334,-327662925.8728
6.166666666666667,-387933899.07979995
6.2,-406367138.3307
6.233333333333333,-334789858.47099996
6.266666666666667,-317588434.7309
6.3,-364793364.8412
6.333333333333333,-378607295.9266
6.366666666666666,-430695494.66899997
6.4,-464878375.0937
6.433333333333334,-465406296.0269
6.466666666666667,-401307896.0542
6.5,-383534557.9698
6.533333333333333,-382346735.87009996
6.566666666666666,-402187764.2762
6.6,-433027145.45729995
6.633333333333334,-432719191.5796
6.666666666666667,-342180751.5358
6.7,-225554218.7097
6.733333333333333,-130880398.0225
6.766666666666667,-4399341.109999999
6.8,125513201.86829999
6.833333333333333,374647888.92759997
6.866666666666666,414197965.5065
6.9,287013014.0164
6.933333333333334,139239146.1315
6.966666666666667,-13154029.9189
7.0,-76812495.7806
7.033333333333333,-95993623.0202
7.066666666666666,-98501247.45289999
7.1,-80331968.6686
7.133333333333334,-109367619.9946
7.166666666666667,-152701129.9281
7.2,-188379786.3302
7.233333333333333,-171046382.3568
7.266666666666667,-175181763.0002
7.3,-165283245.5027
7.333333333333333,-150281492.31759998
7.366666666666666,-93485998.58749999
7.4,-19225120.6507
7.433333333333334,40825885.5008
7.466666666666667,122301682.858
7.5,182924603.3538
7.533333333333333,266160137.15499997
7.566666666666666,315344770.76479995
7.6,372492211.7837
7.633333333333334,476140688.33529997
7.666666666666667,592195306.8170999
7.7,810886553.3952
7.733333333333333,1059317345.8769
7.766666666666667,1256803768.3048
7.8,1218177553.359
7.833333333333333,1122183930.3388
7.866666666666666,1025090472.0410999
7.9,970274681.8104999
7.933333333333334,970978576.3880999
7.966666666666667,969614780.6439999
8.0,1004457562.2351999
8.033333333333333,1078630453.3497999
8.066666666666666,1079906262.2717
8.1,1043215757.4143
8.133333333333333,984572540.418
8.166666666666666,939567280.8627
8.2,942866786.6952
8.233333333333333,916206779.5685999
8.266666666666667,862930758.7264999
8.3,816561703.4271
8.333333333333334,833719133.7560999
8.366666666666667,872785282.8129
8.4,914007109.0136
8.433333333333334,1011936442.1221999
8.466666666666667,1075110980.4617999
8.5,1085141478.1926
8.533333333333333,1131774493.9586
8.566666666666666,1166177341.4387999
8.6,1194289131.1317
8.633333333333333,1249104921.3623
8.666666666666666,1357768646.7793
8.7,1352005509.9252
8.733333333333333,1246905250.8072999
8.766666666666667,1036528758.9271
8.8,873357197.1572
8.833333333333334,769576740.3722999
8.866666666666667,778199448.9478999
8.9,794916945.1659
8.933333333333334,817133617.7714
8.966666666666667,888666904.2199999
9.0,849424781.5187999
9.033333333333333,762273834.1297
9.066666666666666,734162044.4368
9.1,714760950.1416999
9.133333333333333,720964021.1068
9.166666666666666,727299072.3052
9.2,744016568.5231999
9.233333333333333,716784647.0523
9.266666666666667,714057055.5640999
9.3,719864185.8292999
9.333333333333334,754530993.7760999
9.366666666666667,813350184.4167999
9.4,880440136.3442999
9.433333333333334,946254279.3498999
9.466666666666667,994163104.0378
9.5,1067676093.9858999
9.533333333333333,1103794684.4989998
9.566666666666666,1230143761.1782
9.6,1211446561.4607
9.633333333333333,955580882.5030999
9.666666666666666,591491412.2394999
9.7,359074221.3982
9.733333333333333,277598424.041
9.766666666666667,278390305.4408
9.8,324319426.6292
9.833333333333334,341432863.5471
9.866666666666667,337649430.1925
9.9,369720626.88439995
9.933333333333334,312045264.9323
9.966666666666667,274122944.56409997
