Time (s),PPGG
0.0,13957205.2277
0.03333333333333333,10314454.3165
0.06666666666666667,8231117.7044
0.1,5728643.2419
0.13333333333333333,4601571.3393
0.16666666666666666,4078500.9325
0.2,3231280.2166
0.23333333333333334,2732063.1834
0.26666666666666666,2267348.3513
0.3,1872915.7807
0.3333333333333333,642763.2279
0.36666666666666664,-547349.7335
0.4,-2046278.6924
0.43333333333333335,-4134300.7886
0.4666666666666667,-6840806.786
0.5,-8702221.833
0.5333333333333333,-9872740.9518
0.5666666666666667,-10339585.5494
0.6,-10531690.3975
0.6333333333333333,-10328510.7688
0.6666666666666666,-9962191.1028
0.7,-10004360.4597
0.7333333333333333,-10294860.4739
0.7666666666666667,-10498466.0557
0.8,-10572155.942
0.8333333333333334,-10615177.2051
0.8666666666666667,-10841784.2543
0.9,-11104171.3639
0.9333333333333333,-11973541.641
0.9666666666666667,-12630361.3212
1.0,-10461408.136
1.0333333333333334,6040866.8642
1.0666666666666667,7718696.1251
1.1,3727089.625
1.1333333333333333,2216659.9324
1.1666666666666667,627854.8694
1.2,-370153.2439
1.2333333333333334,-128211.8831
1.2666666666666666,-566091.6699
1.3,-1633530.1385000001
1.3333333333333333,-2983375.5124
1.3666666666666667,-6617181.4085
1.4,-10819634.6931
1.4333333333333333,-11442378.1253
1.4666666666666666,-10265043.7569
1.5,-10185816.4803
1.5333333333333334,-10864785.7217
1.5666666666666667,-11274552.6039
1.6,-11513086.3399
1.6333333333333333,-12037008.652900001
1.6666666666666667,-12472332.7211
1.7,-12748350.3299
1.7333333333333334,-12964734.5047
1.7666666666666666,-13081871.6072
1.8,-13224565.8957
1.8333333333333333,-13055036.561900001
1.8666666666666667,-9769660.3016
1.9,-6427632.279
1.9333333333333333,-1343030.1243
1.9666666666666666,2543365.9601000003
2.0,3126495.754
2.033333333333333,2953984.7485
2.066666666666667,434898.1151
2.1,-994174.5354
2.1333333333333333,-1468686.2888
2.1666666666666665,-1210132.7571
2.2,-68578.4491
2.2333333333333334,232996.3457
2.2666666666666666,44725.0755
2.3,-1427794.7912
2.3333333333333335,-3274727.4328
2.3666666666666667,-4200323.5191
2.4,-5454755.3986
2.433333333333333,-6812693.8814
2.466666666666667,-7447364.0004
2.5,-7936358.159200001
2.533333333333333,-7960637.4859
2.566666666666667,-8494356.7202
2.6,-9129026.8392
2.6333333333333333,-9793087.7221
2.6666666666666665,-10472056.9635
2.7,-11578257.1642
2.7333333333333334,-12459128.175
2.7666666666666666,-12805853.9984
2.8,-12874858.4006
2.8333333333333335,-11942447.0647
2.8666666666666667,-6972426.2939
2.9,-2633668.0173
2.933333333333333,-981821.8955
2.966666666666667,469400.3162
3.0,866814.5585
3.033333333333333,1139850.4956
3.066666666666667,1359642.2952
3.1,1633956.0916
3.1333333333333333,1410330.7141
3.1666666666666665,1300860.7674
3.2,1611806.5304
3.2333333333333334,3138848.3939
3.2666666666666666,1864822.6718000001
3.3,-1380088.044
3.3333333333333335,-4322998.0119
3.3666666666666667,-4415003.8815
3.4,-5362323.5759000005
3.433333333333333,-8424926.3649
3.466666666666667,-10150888.3261
3.5,-10328510.7688
3.533333333333333,-10416257.1074
3.566666666666667,-10495910.337100001
3.6,-10603250.5183
3.6333333333333333,-10689293.0445
3.6666666666666665,-10716128.0898
3.7,-11023666.228
3.7333333333333334,-11586776.2262
3.7666666666666666,-12753035.814
3.8,-12937047.5532
3.8333333333333335,-10593027.6439
3.8666666666666667,1517244.9422
3.9,3041305.134
3.933333333333333,2151915.0612
3.966666666666667,2225604.9475000002
4.0,1312361.5011
4.033333333333333,650430.3837
4.066666666666666,941356.351
4.1,777790.3606
4.133333333333334,-1615214.1552
4.166666666666667,-7138548.0029
4.2,-7418825.1427
4.233333333333333,-4688891.7248
4.266666666666667,-6509415.2742
4.3,-9786272.4725
4.333333333333333,-10803022.5222
4.366666666666666,-10994701.417200001
4.4,-11214493.2168
4.433333333333334,-11297128.1182
4.466666666666667,-11907092.9574
4.5,-12266597.3738
4.533333333333333,-12981772.6287
4.566666666666666,-13566180.2819
4.6,-13611331.3105
4.633333333333334,-12446775.5351
4.666666666666667,-6125205.578
4.7,8826600.1382
4.733333333333333,9498754.13
4.766666666666667,7343005.490900001
4.8,6536250.3195
4.833333333333333,4216509.7369
4.866666666666666,2243920.9308
4.9,1132609.2929
4.933333333333334,292203.82660000003
4.966666666666667,-122674.4928
5.0,-788439.1881
5.033333333333333,-1793262.551
5.066666666666666,-2192380.6057
5.1,-1261247.1291
5.133333333333334,-2040315.349
5.166666666666667,-6319866.1447
5.2,-9669561.3231
5.233333333333333,-11289035.009300001
5.266666666666667,-12594581.2608
5.3,-12883803.4157
5.333333333333333,-13112966.1835
5.366666666666666,-13202842.2876
5.4,-13305496.9847
5.433333333333334,-13539771.1897
5.466666666666667,-13957205.2277
5.5,-13626239.669
5.533333333333333,-8185540.7227
5.566666666666666,10215207.2442
5.6,10696960.2003
5.633333333333334,7634783.3644
5.666666666666667,6350960.721
5.7,4412022.2098
5.733333333333333,3340324.2102
5.766666666666667,2744841.7764
5.8,1845654.7823
5.833333333333333,920058.696
5.866666666666666,-1228874.6935
5.9,-4375390.2432
5.933333333333334,-5637063.3254
5.966666666666667,-6197617.605
6.0,-7737864.0146
6.033333333333333,-8838952.7781
6.066666666666666,-9750066.459
6.1,-9898724.0909
6.133333333333334,-10215633.1973
6.166666666666667,-10676088.4984
6.2,-10819634.6931
6.233333333333333,-10962754.934700001
6.266666666666667,-11113968.2852
6.3,-11285201.431400001
6.333333333333333,-11829569.4932
6.366666666666666,-12806279.9515
6.4,-12131996.1942
6.433333333333334,-4684206.2407
6.466666666666667,8923717.445
6.5,6778617.6334
6.533333333333333,5130179.1364
6.566666666666666,2746119.6357
6.6,2008794.8196
6.633333333333334,2554014.7876
6.666666666666667,2022851.2719
6.7,833590.2167
6.733333333333333,-1641623.2474
6.766666666666667,-5958231.9628
6.8,-9874444.7642
6.833333333333333,-11358891.3177
6.866666666666666,-11914334.1601
6.9,-12270004.9986
6.933333333333334,-12416958.8181
6.966666666666667,-12519613.5152
7.0,-12508538.7346
7.033333333333333,-12571579.7934
7.066666666666666,-12647825.3983
7.1,-12687864.9897
7.133333333333334,-12662733.7568
7.166666666666667,-12613749.1503
7.2,-12599692.698
7.233333333333333,-11740971.2484
7.266666666666667,-7204144.7803
7.3,-2134450.9841
7.333333333333333,1278285.2531
7.366666666666666,2783603.5085
7.4,2616629.8933
7.433333333333334,1324714.141
7.466666666666667,1071697.9996
7.5,848498.5752
7.533333333333333,716027.1611
7.566666666666666,843813.0911
7.6,2128061.6876
7.633333333333334,1786873.2545
7.666666666666667,-739028.6285
7.7,-3759036.1075
7.733333333333333,-3163979.6268
7.766666666666667,-1493391.5686
7.8,-1406497.1362
7.833333333333333,-2855589.5824
7.866666666666666,-3791408.5431
7.9,-4589644.6525
7.933333333333334,-7162401.3765
7.966666666666667,-9141379.4791
8.0,-10452037.1678
8.033333333333333,-11766102.4813
8.066666666666666,-12540059.264
8.1,-10888213.1422
8.133333333333333,-2026684.8498
8.166666666666666,9060874.3432
8.2,7668433.6593
8.233333333333333,4652685.7113
8.266666666666667,3640195.1926
8.3,2151915.0612
8.333333333333334,713897.3956
8.366666666666667,-811866.6086
8.4,-3577580.0869
8.433333333333334,-6176319.95
8.466666666666667,-9230403.677
8.5,-10016713.0996
8.533333333333333,-9921725.5583
8.566666666666666,-10323399.331600001
8.6,-11130580.4561
8.633333333333333,-11193195.5618
8.666666666666666,-11472620.7954
8.7,-11554829.7437
8.733333333333333,-11421932.3765
8.766666666666667,-11105023.2701
8.8,-10972125.902900001
8.833333333333334,-10885231.4705
8.866666666666667,-10875008.5961
8.9,-10960625.1692
8.933333333333334,-11329500.5538
8.966666666666667,-11701357.610100001
9.0,-11585498.3669
9.033333333333333,-7786848.6211
9.066666666666666,-1428220.7443000001
9.1,1874193.6400000001
9.133333333333333,3400809.5504
9.166666666666666,3546485.5106
9.2,3636361.6147000003
9.233333333333333,3666604.2848
9.266666666666667,3519650.4653000003
9.3,3176758.2198
9.333333333333334,1873767.6869
9.366666666666667,1630974.4199
9.4,1980255.9619
9.433333333333334,4128763.3983
9.466666666666667,4610942.3075
9.5,3212112.3271
9.533333333333333,-1188835.1021
9.566666666666666,-5178311.8367
9.6,-8731186.6438
9.633333333333333,-10474186.729
9.666666666666666,-10431591.419
9.7,-10153869.9978
9.733333333333333,-9759011.4741
9.766666666666667,-9687877.306400001
9.8,-9587778.3279
9.833333333333334,-9324113.359
9.866666666666667,-9071949.1238
9.9,-8748650.720900001
9.933333333333334,-8185966.6758
9.966666666666667,-7319578.070400001
