Time (s),PPGG
0.0,230602863.1464
0.03333333333333333,231872179.8996
0.06666666666666667,301756838.8644
0.1,327174132.8736
0.13333333333333333,336245103.8172
0.16666666666666666,337359625.8444
0.2,336905561.3148
0.23333333333333334,338143919.1228
0.26666666666666666,331425828.0144
0.3,323262986.13
0.3333333333333333,310724613.324
0.36666666666666664,296751809.3904
0.4,281891515.6944
0.43333333333333335,273873148.8876
0.4666666666666667,263336787.8712
0.5,249993482.49
0.5333333333333333,232677112.4748
0.5666666666666667,213637361.1768
0.6,195722451.5544
0.6333333333333333,178973662.2012
0.6666666666666666,155073356.5068
0.7,138510320.8248
0.7333333333333333,121792490.4168
0.7666666666666667,105446167.3512
0.8,91948067.244
0.8333333333333334,78501565.3788
0.8666666666666667,65065383.162
0.9,52031667.2328
0.9333333333333333,38358133.1028
0.9666666666666667,27016839.5112
1.0,14199836.1984
1.0333333333333334,-3591237.6432
1.0666666666666667,-16336003.417200001
1.1,-26738209.0044
1.1333333333333333,-36221965.884
1.1666666666666667,-47625177.366
1.2,-56912860.926
1.2333333333333334,-65818717.4952
1.2666666666666666,-68109679.44
1.3,-74053796.9184
1.3333333333333333,-78852433.4244
1.3666666666666667,-84373445.3184
1.4,-95921131.878
1.4333333333333333,-112195217.4048
1.4666666666666666,-123897698.6904
1.5,-141678452.8836
1.5333333333333334,-167735565.0936
1.5666666666666667,-181058231.178
1.6,-196589302.02
1.6333333333333333,-220262575.4496
1.6666666666666667,-242728450.0164
1.7,-259714591.2828
1.7333333333333334,-272335521.276
1.7666666666666666,-284884213.7304
1.8,-299465876.9196
1.8333333333333333,-317896768.962
1.8666666666666667,-337617617.0544
1.9,-338143919.1228
1.9333333333333333,-323861525.7372
1.9666666666666666,-312613108.9812
2.0,-297959208.2532
2.033333333333333,-279043292.736
2.066666666666667,-263739254.1588
2.1,-253770473.8044
2.1333333333333333,-247351652.4996
2.1666666666666665,-234452091.9996
2.2,-226516282.38
2.2333333333333334,-228992997.996
2.2666666666666666,-223183035.9468
2.3,-219973625.2944
2.3333333333333335,-223110798.408
2.3666666666666667,-220241936.1528
2.4,-212956264.3824
2.433333333333333,-212491880.2044
2.466666666666667,-208126668.9312
2.5,-201759445.8684
2.533333333333333,-197229120.2208
2.566666666666667,-189479064.2724
2.6,-179892110.9088
2.6333333333333333,-177508272.1284
2.6666666666666665,-170779861.3716
2.7,-164639670.5736
2.7333333333333334,-167106066.5412
2.7666666666666666,-164546793.738
2.8,-158592356.6112
2.8333333333333335,-146827957.4352
2.8666666666666667,-134857165.2912
2.9,-128221631.37
2.933333333333333,-123340437.6768
2.966666666666667,-111957865.4916
3.0,-102453469.3152
3.033333333333333,-100957120.2972
3.066666666666667,-92185419.1572
3.1,-79512890.922
3.1333333333333333,-72825758.7588
3.1666666666666665,-81834811.812
3.2,-89027606.7468
3.2333333333333334,-102308994.2376
3.2666666666666666,-119986551.9468
3.3,-128871769.2192
3.3333333333333335,-135672417.5148
3.3666666666666667,-139139819.3772
3.4,-140574250.5048
3.433333333333333,-142421467.5684
3.466666666666667,-144506036.5452
3.5,-95095560.006
3.533333333333333,-65839356.792
3.566666666666667,-51391849.032
3.6,-43662432.3804
3.6333333333333333,-39441696.1848
3.6666666666666665,-37026898.4592
3.7,-37666716.66
3.7333333333333334,-40380784.1892
3.7666666666666666,-40659414.696
3.8,-2218724.406
3.8333333333333335,21413270.43
3.8666666666666667,35138402.802
3.9,43167089.2572
3.933333333333333,49245362.1648
3.966666666666667,56778705.4968
4.0,64270770.2352
4.033333333333333,70545116.4624
4.066666666666666,73341741.1788
4.1,77273527.2192
4.133333333333334,79708964.2416
4.166666666666667,82103122.6704
4.2,85477647.6972
4.233333333333333,86272260.624
4.266666666666667,87593175.6192
4.3,136983012.8616
4.333333333333333,166435289.3952
4.366666666666666,184370838.3144
4.4,190098243.1764
4.433333333333334,193947472.0296
4.466666666666667,195908205.2256
4.5,198601633.458
4.533333333333333,195980442.7644
4.566666666666666,193173498.3996
4.6,192306647.93400002
4.633333333333334,192100254.966
4.666666666666667,190676143.48680001
4.7,185629835.4192
4.733333333333333,184525633.0404
4.766666666666667,184143806.0496
4.8,180521609.4612
4.833333333333333,177239961.27
4.866666666666666,174711647.412
4.9,172554840.8964
4.933333333333334,171326802.73680001
4.966666666666667,168292826.1072
5.0,163793459.4048
5.033333333333333,160852359.6108
5.066666666666666,158272447.5108
5.1,155052717.21
5.133333333333334,153215819.7948
5.166666666666667,151667872.5348
5.2,148097274.1884
5.233333333333333,145507042.44
5.266666666666667,147137546.8872
5.3,143959095.18
5.333333333333333,142400828.2716
5.366666666666666,143226400.1436
5.4,137612511.414
5.433333333333334,133144103.6568
5.466666666666667,132194696.004
5.5,130946018.5476
5.533333333333333,126240258.8772
5.566666666666666,123030848.2248
5.6,119480889.1752
5.633333333333334,117427279.1436
5.666666666666667,114682252.6692
5.7,111472842.0168
5.733333333333333,109790739.3276
5.766666666666667,110502795.0672
5.8,110028091.2408
5.833333333333333,103413196.6164
5.866666666666666,100957120.2972
5.9,97881865.074
5.933333333333334,96457753.5948
5.966666666666667,95817935.394
6.0,96705425.1564
6.033333333333333,98604240.462
6.066666666666666,97623873.86400001
6.1,98924149.5624
6.133333333333334,100761046.9776
6.166666666666667,101142873.9684
6.2,98274011.7132
6.233333333333333,96922137.7728
6.266666666666667,92515647.906
6.3,90895463.1072
6.333333333333333,88883131.6692
6.366666666666666,87180389.6832
6.4,87128791.4412
6.433333333333334,85384770.8616
6.466666666666667,85436369.1036
6.5,84218650.5924
6.533333333333333,82990612.4328
6.566666666666666,81422025.876
6.6,78955629.9084
6.633333333333334,78212615.2236
6.666666666666667,81318829.392
6.7,84239289.8892
6.733333333333333,84249609.5376
6.766666666666667,87407421.948
6.8,89264958.66
6.833333333333333,88109158.0392
6.866666666666666,86117465.898
6.9,84641756.1768
6.933333333333334,84579838.2864
6.966666666666667,83795545.008
7.0,84414723.912
7.033333333333333,85900753.2816
7.066666666666666,88841853.0756
7.1,89461031.9796
7.133333333333334,91576559.9016
7.166666666666667,93754005.714
7.2,96437114.298
7.233333333333333,99316296.2016
7.266666666666667,103196484.0
7.3,105848633.6388
7.333333333333333,108480143.9808
7.366666666666666,112164258.4596
7.4,114661613.3724
7.433333333333334,116281798.1712
7.466666666666667,116942255.6688
7.5,117169287.9336
7.533333333333333,117891663.3216
7.566666666666666,119191939.02
7.6,119418971.2848
7.633333333333334,117179607.582
7.666666666666667,117788466.83760001
7.7,117231205.824
7.733333333333333,115611021.0252
7.766666666666667,115590381.7284
7.8,115652299.6188
7.833333333333333,116931936.0204
7.866666666666666,116818419.888
7.9,119357053.3944
7.933333333333334,120296141.3988
7.966666666666667,120234223.5084
8.0,121307466.942
8.033333333333333,125187654.7404
8.066666666666666,124021534.4712
8.1,125548842.4344
8.133333333333333,127210305.8268
8.166666666666666,128335147.5024
8.2,130853141.712
8.233333333333333,129965651.9496
8.266666666666667,129604464.2556
8.3,129542546.3652
8.333333333333334,131823188.6616
8.366666666666667,132287572.8396
8.4,132493965.8076
8.433333333333334,134826206.346
8.466666666666667,132968669.634
8.5,135053238.6108
8.533333333333333,137003652.1584
8.566666666666666,138840549.5736
8.6,139459728.4776
8.633333333333333,142700098.0752
8.666666666666666,144155168.4996
8.7,146982752.1612
8.733333333333333,150604948.7496
8.766666666666667,152338649.6808
8.8,152803033.8588
8.833333333333334,153917555.886
8.866666666666667,155052717.21
8.9,156270435.7212
8.933333333333334,156641943.0636
8.966666666666667,157653268.6068
9.0,157550072.1228
9.033333333333333,156187878.534
9.066666666666666,155032077.9132
9.1,155548060.3332
9.133333333333333,155620297.872
9.166666666666666,153907236.2376
9.2,152854632.1008
9.233333333333333,153143582.256
9.266666666666667,151544036.754
9.3,150532711.2108
9.333333333333334,150687505.9368
9.366666666666667,150181843.1652
9.4,150955816.7952
9.433333333333334,152173535.3064
9.466666666666667,156466509.0408
9.5,158282767.1592
9.533333333333333,161069072.2272
9.566666666666666,163906975.5372
9.6,166074101.7012
9.633333333333333,168416661.888
9.666666666666666,169407348.1344
9.7,174577491.9828
9.733333333333333,172843791.0516
9.766666666666667,172162694.2572
9.8,171512556.408
9.833333333333334,171079131.17520002
9.866666666666667,171068811.5268
9.9,171099770.472
9.933333333333334,173493928.9008
9.966666666666667,172214292.4992
