Time (s),PPGG
0.0,261679602.324
0.03333333333333333,290324094.80619997
0.06666666666666667,202308576.97259998
0.1,5479053.649999999
0.13333333333333333,-214143332.8566
0.16666666666666666,-402337867.6268
0.2,-547730035.2832
0.23333333333333334,-602235660.9934
0.26666666666666666,-603988958.1614
0.3,-572670687.498
0.3333333333333333,-530744968.96819997
0.36666666666666664,-480052764.5984
0.4,-418906525.86439997
0.43333333333333335,-346539185.25519997
0.4666666666666667,-268999618.0004
0.5,-195470718.0174
0.5333333333333333,-99631111.57159999
0.5666666666666667,-18563033.7662
0.6,73134408.1202
0.6333333333333333,165248258.084
0.6666666666666666,247171068.2588
0.7,343996904.3616
0.7333333333333333,444416999.6588
0.7666666666666667,503108622.3576
0.8,450268628.95699996
0.8333333333333334,268736623.4252
0.8666666666666667,-12141582.8884
0.9,-276319633.6768
0.9333333333333333,-497673401.1368
0.9666666666666667,-643591557.9435999
1.0,-700902459.1226
1.0333333333333334,-718128603.7982
1.0666666666666667,-688432133.0152
1.1,-648698035.9454
1.1333333333333333,-581963162.4884
1.1666666666666667,-507820608.4966
1.2,-424801987.5918
1.2333333333333334,-342944926.0608
1.2666666666666666,-260715288.8816
1.3,-167637125.4754
1.3333333333333333,-68422421.9812
1.3666666666666667,39646432.2114
1.4,130532974.1576
1.4333333333333333,233057026.0564
1.4666666666666666,336589223.8268
1.5,447441437.2736
1.5333333333333334,492391593.41819996
1.5666666666666667,445534726.6034
1.6,273536274.4226
1.6333333333333333,11659426.1672
1.6666666666666667,-235445893.44779998
1.7,-445907302.25159997
1.7333333333333334,-564211028.6624
1.7666666666666666,-620491867.7552
1.8,-619417973.2398
1.8333333333333333,-595003310.1754
1.8666666666666667,-554545978.0238
1.9,-485794812.8236
1.9333333333333333,-418753112.36219996
1.9666666666666666,-329400705.43799996
2.0,-236103379.8858
2.033333333333333,-117492826.4706
2.066666666666667,-47141777.6046
2.1,48675912.6266
2.1333333333333333,146378397.3134
2.1666666666666665,241253690.3168
2.2,318267268.4212
2.2333333333333334,396836897.7622
2.2666666666666666,476984494.55439997
2.3,544661765.2392
2.3333333333333335,541133254.6886
2.3666666666666667,410205788.6682
2.4,169456171.2872
2.433333333333333,-79775021.144
2.466666666666667,-313007376.91719997
2.5,-484457923.733
2.533333333333333,-560638685.6826
2.566666666666667,-567103968.9896
2.6,-552113278.2032
2.6333333333333333,-525375496.3912
2.6666666666666665,-485027745.31259996
2.7,-428878403.5074
2.7333333333333334,-363020178.6344
2.7666666666666666,-295452489.0226
2.8,-194374907.2874
2.8333333333333335,-106951127.248
2.8666666666666667,-8525407.4794
2.9,87007371.962
2.933333333333333,185433091.7306
2.966666666666667,267202488.4032
3.0,348533560.7838
3.033333333333333,460569249.819
3.066666666666667,522745550.6392
3.1,541703076.2682
3.1333333333333333,425218395.6692
3.1666666666666665,217145854.2568
3.2,-43635183.2686
3.2333333333333334,-264331464.2906
3.2666666666666666,-420637906.8178
3.3,-492194347.48679996
3.3333333333333335,-494298304.0884
3.3666666666666667,-472447838.1322
3.4,-431924757.3368
3.433333333333333,-372005826.6204
3.466666666666667,-291639067.6822
3.5,-195404969.3736
3.533333333333333,-100946084.44759999
3.566666666666667,-16239915.0186
3.6,75610940.37
3.6333333333333333,172129949.4684
3.6666666666666665,262972658.9854
3.7,364554313.65639997
3.7333333333333334,452876658.49439996
3.7666666666666666,545209670.6042
3.8,625225770.1087999
3.8333333333333335,708836128.8077999
3.8666666666666667,699675151.105
3.9,558249818.2912
3.933333333333333,320108230.4476
3.966666666666667,48785493.699599996
4.0,-181159429.8836
4.033333333333333,-364795392.01699996
4.066666666666666,-436373748.9006
4.1,-459517271.5182
4.133333333333334,-446674369.7626
4.166666666666667,-412528907.4158
4.2,-370647021.3152
4.233333333333333,-304898377.5152
4.266666666666667,-228520369.6342
4.3,-134675138.717
4.333333333333333,-43788596.7708
4.366666666666666,55075447.289799996
4.4,155035302.0804
4.433333333333334,240618120.0934
4.466666666666667,324513389.5822
4.5,400321575.8836
4.533333333333333,488928831.5114
4.566666666666666,570084574.1752
4.6,650823908.7616
4.633333333333334,651590976.2725999
4.666666666666667,541089422.2594
4.7,313577198.4968
4.733333333333333,62088635.9618
4.766666666666667,-164985263.5088
4.8,-346341939.32379997
4.833333333333333,-432932903.2084
4.866666666666666,-455616185.3194
4.9,-444395083.4442
4.933333333333334,-409482553.5864
4.966666666666667,-370427859.1692
5.0,-319801403.4432
5.033333333333333,-243028903.69939998
5.066666666666666,-182474402.75959998
5.1,-100442011.51179999
5.133333333333334,-1161559.3738
5.166666666666667,100924168.233
5.2,204828941.6516
5.233333333333333,297929021.27239996
5.266666666666667,402403616.27059996
5.3,509267078.6602
5.333333333333333,611221308.9794
5.366666666666666,669803350.6051999
5.4,613500595.2978
5.433333333333334,429272895.3702
5.466666666666667,163407296.0576
5.5,-75413694.4386
5.533333333333333,-266523085.75059998
5.566666666666666,-384848728.376
5.6,-421711801.3332
5.633333333333334,-429185230.5118
5.666666666666667,-400979062.32159996
5.7,-360740892.316
5.733333333333333,-302180766.9048
5.766666666666667,-240114047.1576
5.8,-167659041.69
5.833333333333333,-76312259.23719999
5.866666666666666,19615012.066999998
5.9,117536658.8998
5.933333333333334,220411370.2322
5.966666666666667,327231000.1926
6.0,426423787.4722
6.033333333333333,536530849.62259996
6.066666666666666,613084187.2204
6.1,702414677.93
6.133333333333334,694897416.3222
6.166666666666667,563443961.1514
6.2,305753109.8846
6.233333333333333,16700155.5252
6.266666666666667,-210154581.7994
6.3,-381692793.4736
6.333333333333333,-463506022.5754
6.366666666666666,-503459281.7912
6.4,-485115410.171
6.433333333333334,-445973050.8954
6.466666666666667,-397077976.1228
6.5,-327603575.8408
6.533333333333333,-243905552.2834
6.566666666666666,-138861135.7056
6.6,-43087277.9036
6.633333333333334,58143717.333799995
6.666666666666667,149227505.2114
6.7,238514163.49179998
6.733333333333333,348270566.2086
6.766666666666667,431289187.1134
6.8,534076233.58739996
6.833333333333333,618782403.0164
6.866666666666666,696300054.0566
6.9,686437757.4865999
6.933333333333334,544727513.883
6.966666666666667,284253303.362
7.0,5829713.0836
7.033333333333333,-233889842.2112
7.066666666666666,-400321575.8836
7.1,-475822935.1806
7.133333333333334,-504401679.019
7.166666666666667,-486408466.83239996
7.2,-456295587.972
7.233333333333333,-402052956.837
7.266666666666667,-346933677.118
7.3,-278598919.9952
7.333333333333333,-196215869.3138
7.366666666666666,-98951708.919
7.4,10804693.797799999
7.433333333333334,89790731.2162
7.466666666666667,189662921.1484
7.5,279957725.3004
7.533333333333333,377704042.4164
7.566666666666666,468612500.5772
7.6,554852805.0282
7.633333333333334,602126079.9204
7.666666666666667,540826427.6841999
7.7,370778518.6028
7.733333333333333,103817108.56019999
7.766666666666667,-119465285.78459999
7.8,-302465677.6946
7.833333333333333,-400277743.4544
7.866666666666666,-428724990.00519997
7.9,-421229644.612
7.933333333333334,-385988371.5352
7.966666666666667,-333455205.139
8.0,-280439882.0216
8.033333333333333,-204237203.8574
8.066666666666666,-135025798.1506
8.1,-54746704.0708
8.133333333333333,32457913.8226
8.166666666666666,125996317.73539999
8.2,226482161.6764
8.233333333333333,351667579.4716
8.266666666666667,459999428.23939997
8.3,577711416.856
8.333333333333334,686919914.2078
8.366666666666667,718128603.7982
8.4,620469951.5406
8.433333333333334,389275803.7252
8.466666666666667,126960631.1778
8.5,-128582431.0582
8.533333333333333,-320524638.525
8.566666666666666,-427716844.1336
8.6,-468656333.0064
8.633333333333333,-468349506.002
8.666666666666666,-438762616.292
8.7,-397757378.7754
8.733333333333333,-341016299.176
8.766666666666667,-277481193.0506
8.8,-203908460.6384
8.833333333333334,-124659428.64479999
8.866666666666667,-37104151.3178
8.9,62329714.322399996
8.933333333333334,163736039.2766
8.966666666666667,274873163.5132
9.0,369069053.86399996
9.033333333333333,473017659.7118
9.066666666666666,561690663.9834
9.1,626190083.5512
9.133333333333333,604142371.6636
9.166666666666666,434927278.737
9.2,182846978.4078
9.233333333333333,-99740692.6446
9.266666666666667,-324250395.00699997
9.3,-468327589.7874
9.333333333333334,-529539577.1652
9.366666666666667,-538678638.6534
9.4,-522811299.283
9.433333333333334,-480293842.959
9.466666666666667,-431968589.766
9.5,-370931932.10499996
9.533333333333333,-296855126.75699997
9.566666666666666,-208313619.773
9.6,-118150312.9086
9.633333333333333,-38178045.8332
9.666666666666666,61606479.2406
9.7,148657683.6318
9.733333333333333,241670098.3942
9.766666666666667,326924173.1882
9.8,420352996.028
9.833333333333334,506067311.3286
9.866666666666667,551368126.9068
9.9,491975185.3408
9.933333333333334,280111138.80259997
9.966666666666667,48106091.047
