Time (s),PPGG
0.0,-439974068.8792
0.03333333333333333,-406826405.0755
0.06666666666666667,-371434611.7054
0.1,-333081814.0463
0.13333333333333333,-291269316.639
0.16666666666666666,-236147884.1643
0.2,-174636916.11859998
0.23333333333333334,-108559767.7746
0.26666666666666666,-72762784.3439
0.3,-73245895.57
0.3333333333333333,-101718289.4437
0.36666666666666664,-164803265.0325
0.4,-240075110.9055
0.43333333333333335,-311965178.1958
0.4666666666666667,-345003752.3678
0.5,-357050364.5541
0.5333333333333333,-360416558.9037
0.5666666666666667,-363564573.9899
0.6,-367148947.60289997
0.6333333333333333,-361897061.0482
0.6666666666666666,-350395897.0204
0.7,-349040068.7407
0.7333333333333333,-352936127.0157
0.7666666666666667,-343788182.186
0.8,-321814413.515
0.8333333333333334,-290303094.1868
0.8666666666666667,-244688043.90309998
0.9,-198901567.0553
0.9333333333333333,-154673513.51749998
0.9666666666666667,-128476417.67639999
1.0,-125982940.3804
1.0333333333333334,-132699744.8465
1.0666666666666667,-160704611.7272
1.1,-193867859.764
1.1333333333333333,-221436368.11789998
1.1666666666666667,-234433618.5233
1.2,-242272487.7726
1.2333333333333334,-241321849.5535
1.2666666666666666,-236334894.9615
1.3,-231519366.93359998
1.3333333333333333,-219410417.81489998
1.3666666666666667,-203249568.0902
1.4,-193618512.0344
1.4333333333333333,-188896489.4051
1.4666666666666666,-171535653.7317
1.5,-154954029.7133
1.5333333333333334,-133665967.29869999
1.5666666666666667,-110055854.1522
1.6,-82627603.8962
1.6333333333333333,-43028067.589099996
1.6666666666666667,-16332276.2888
1.7,-8384317.4078
1.7333333333333334,-13979057.090699999
1.7666666666666666,-19168606.713
1.8,-34160638.9552
1.8333333333333333,-50633173.3419
1.8666666666666667,-54903253.2113
1.9,-51100700.3349
1.9333333333333333,-51786406.591299996
1.9666666666666666,-53796772.6612
2.0,-49838377.4538
2.033333333333333,-42560540.596099995
2.066666666666667,-35345040.6708
2.1,-23438686.582399998
2.1333333333333333,-7963543.1141
2.1666666666666665,6467456.7365
2.2,26555533.2024
2.2333333333333334,55246106.339499995
2.2666666666666666,72326425.8171
2.3,95920954.7305
2.3333333333333335,121011570.02149999
2.3666666666666667,134865953.2474
2.4,137515272.8744
2.433333333333333,131063400.37099999
2.466666666666667,118471340.0262
2.5,103822160.9122
2.533333333333333,93458645.9007
2.566666666666667,85869124.381
2.6,89359992.59539999
2.6333333333333333,92617097.3133
2.6666666666666665,96170302.4601
2.7,105364999.9891
2.7333333333333334,116305131.62529999
2.7666666666666666,126107614.2452
2.8,142954170.2263
2.8333333333333335,160782532.8927
2.8666666666666667,176086249.7969
2.9,202345682.5704
2.933333333333333,237643970.54189998
2.966666666666667,261394341.7863
3.0,284256411.744
3.033333333333333,310141822.9231
3.066666666666667,327222142.4007
3.1,325429955.5942
3.1333333333333333,309347027.03499997
3.1666666666666665,285752498.1216
3.2,262672248.9005
3.2333333333333334,231363524.60259998
3.2666666666666666,216122144.63079998
3.3,214158531.2602
3.3333333333333335,218537700.7613
3.3666666666666667,223914261.1808
3.4,224210361.6097
3.433333333333333,227825903.6889
3.466666666666667,236786837.7214
3.5,243565979.1199
3.533333333333333,248272417.5161
3.566666666666667,246682825.7399
3.6,235758278.33679998
3.6333333333333333,210714415.7451
3.6666666666666665,178268042.4309
3.7,134834784.7812
3.7333333333333334,101749457.9099
3.7666666666666666,47095552.4282
3.8,-27256823.6919
3.8333333333333335,-117489533.34089999
3.8666666666666667,-220844167.2601
3.9,-314458655.4918
3.933333333333333,-393642143.8729
3.966666666666667,-446550615.2474
4.0,-485137176.403
4.033333333333333,-501781137.3538
4.066666666666666,-510648565.9877
4.1,-508061583.2931
4.133333333333334,-494892906.3236
4.166666666666667,-459532281.41969997
4.2,-411797775.43439996
4.233333333333333,-350863424.01339996
4.266666666666667,-305186036.7973
4.3,-259212549.1523
4.333333333333333,-203810600.4818
4.366666666666666,-158335808.296
4.4,-122928430.6928
4.433333333333334,-99785844.5393
4.466666666666667,-70269307.04789999
4.5,-37682675.6358
4.533333333333333,-30810028.8387
4.566666666666666,-29236021.2956
4.6,-28347720.008899998
4.633333333333334,-25978916.5777
4.666666666666667,-28036035.346899997
4.7,-26088006.2094
4.733333333333333,-12498554.9462
4.766666666666667,-1137649.0163
4.8,14618010.6478
4.833333333333333,31402229.6965
4.866666666666666,54030536.157699995
4.9,78528950.5909
4.933333333333334,114372686.7209
4.966666666666667,158740998.3566
5.0,201675560.5471
5.033333333333333,224350619.7076
5.066666666666666,253913909.8983
5.1,284677186.0377
5.133333333333334,307414582.1306
5.166666666666667,330510415.5848
5.2,347777745.8596
5.233333333333333,360619153.934
5.266666666666667,348650462.91319996
5.3,335777886.37259996
5.333333333333333,327097468.5359
5.366666666666666,321159875.7248
5.4,319507947.0162
5.433333333333334,321206628.4241
5.466666666666667,332162344.2934
5.5,343149228.6289
5.533333333333333,359107483.3233
5.566666666666666,374426784.46059996
5.6,386255217.3835
5.633333333333334,401060238.8285
5.666666666666667,413480872.6092
5.7,429376790.37119997
5.733333333333333,441968850.71599996
5.766666666666667,456244008.2356
5.8,468041272.69229996
5.833333333333333,484108617.01839995
5.866666666666666,501033094.16499996
5.9,510648565.9877
5.933333333333334,507126529.3071
5.966666666666667,494721479.75949997
6.0,477360644.0861
6.033333333333333,459469944.4873
6.066666666666666,440161079.6764
6.1,427179413.50409997
6.133333333333334,418841848.7956
6.166666666666667,415086048.6185
6.2,410441947.1547
6.233333333333333,404083580.0499
6.266666666666667,402899178.3343
6.3,406358878.0825
6.333333333333333,406919910.4741
6.366666666666666,407745874.8284
6.4,408353659.91929996
6.433333333333334,415413317.5136
6.466666666666667,423252186.7629
6.5,430685865.95159996
6.533333333333333,444103890.6507
6.566666666666666,451724580.63659996
6.6,455729728.5433
6.633333333333334,445818156.2917
6.666666666666667,426088517.1871
6.7,401091407.29469997
6.733333333333333,369315156.0038
6.766666666666667,335014258.9507
6.8,316920964.32159996
6.833333333333333,307352245.1982
6.866666666666666,294713432.1541
6.9,289352455.9677
6.933333333333334,287342089.89779997
6.966666666666667,286905731.371
7.0,290271925.7206
7.033333333333333,294916027.18439996
7.066666666666666,300978293.8603
7.1,307461334.82989997
7.133333333333334,313398927.641
7.166666666666667,319507947.0162
7.2,333299993.3097
7.233333333333333,347512813.8969
7.266666666666667,354930908.85249996
7.3,363112631.22999996
7.333333333333333,361865892.582
7.366666666666666,354385460.694
7.4,341512884.1534
7.433333333333334,326957210.43799996
7.466666666666667,307710682.5595
7.5,297674436.4431
7.533333333333333,294744600.6203
7.566666666666666,293342019.64129996
7.6,291284900.8721
7.633333333333334,290100499.1565
7.666666666666667,288994018.6064
7.7,287716111.4922
7.733333333333333,287388842.5971
7.766666666666667,288573244.3127
7.8,292235539.0912
7.833333333333333,300277003.3708
7.866666666666666,309424948.2005
7.9,319710542.04649997
7.933333333333334,334063620.7316
7.966666666666667,346811523.4074
8.0,351175108.67539996
8.033333333333333,349460843.0344
8.066666666666666,339845371.21169996
8.1,326162414.5499
8.133333333333333,307180818.63409996
8.166666666666666,288682333.9444
8.2,274407176.4248
8.233333333333333,262329395.7723
8.266666666666667,260661882.8306
8.3,256516476.826
8.333333333333334,255067143.14769998
8.366666666666667,254926885.04979998
8.4,255815186.3365
8.433333333333334,259306054.55089998
8.466666666666667,264994299.63239998
8.5,269934501.5251
8.533333333333333,280344769.2359
8.566666666666666,288432986.2148
8.6,296458866.26129997
8.633333333333333,307071729.0024
8.666666666666666,320022226.70849997
8.7,329248092.7037
8.733333333333333,328951992.2748
8.766666666666667,319461194.3169
8.8,303502939.6225
8.833333333333334,282401888.0051
8.866666666666667,260225524.3038
8.9,242677677.83319998
8.933333333333334,236818006.1876
8.966666666666667,231020671.47439998
9.0,224132440.44419998
9.033333333333333,223368813.0223
9.066666666666666,225192168.295
9.1,228620699.577
9.133333333333333,230802492.211
9.166666666666666,234137518.0944
9.2,239342651.94979998
9.233333333333333,257295688.48099998
9.266666666666667,262235890.3737
9.3,274921456.1171
9.333333333333334,290848542.3453
9.366666666666667,311045708.4429
9.4,323871532.2842
9.433333333333334,322157266.6432
9.466666666666667,313040490.2797
9.5,296178350.06549996
9.533333333333333,276230531.6975
9.566666666666666,251903543.8284
9.6,240542637.8985
9.633333333333333,235072572.0804
9.666666666666666,227373960.929
9.7,224381788.1738
9.733333333333333,226158390.74719998
9.766666666666667,230397302.15039998
9.8,232734937.1154
9.833333333333334,240558222.1316
9.866666666666667,246901005.00329998
9.9,260194355.8376
9.933333333333334,273394201.2733
9.966666666666667,289866735.65999997
