Time (s),PPGG
0.0,20955380.0566
0.03333333333333333,19529019.1855
0.06666666666666667,18516807.029600002
0.1,17830192.0544
0.13333333333333333,17432391.3148
0.16666666666666666,17377898.0628
0.2,17375173.400200002
0.23333333333333334,17429666.652200002
0.26666666666666666,17489609.2294
0.3,17702132.9122
0.3333333333333333,18001845.7982
0.36666666666666664,18384660.8935
0.4,18858752.1859
0.43333333333333335,19305596.8523
0.4666666666666667,19742905.1996
0.5,20222445.8172
0.5333333333333333,20723783.735600002
0.5666666666666667,21063004.2293
0.6,21422659.692500003
0.6333333333333333,21842257.7329
0.6666666666666666,22015273.808000002
0.7,21775503.4992
0.7333333333333333,20695174.778300002
0.7666666666666667,19594411.0879
0.8,18676199.7917
0.8333333333333334,18023643.099
0.8666666666666667,17647639.6602
0.9,17546827.144
0.9333333333333333,17535928.4936
0.9666666666666667,17610856.7151
1.0,17775698.8024
1.0333333333333334,17924192.914100002
1.0666666666666667,18108107.6396
1.1,18380573.8996
1.1333333333333333,18707533.4116
1.1666666666666667,19091710.8382
1.2,19501772.5595
1.2333333333333334,19994936.4901
1.2666666666666666,20323258.3334
1.3,20764653.6746
1.3333333333333333,21186976.3776
1.3666666666666667,21648806.688300002
1.4,21817735.769500002
1.4333333333333333,21534370.8591
1.4666666666666666,20632507.5385
1.5,19648904.339900002
1.5333333333333334,18847853.5355
1.5666666666666667,18159876.229000002
1.6,17860163.343000002
1.6333333333333333,17760713.1581
1.6666666666666667,17744365.1825
1.7,17764800.152000003
1.7333333333333334,17864250.3369
1.7666666666666666,18020918.4364
1.8,18237529.1131
1.8333333333333333,18574024.9442
1.8666666666666667,18894172.7997
1.9,19302872.1897
1.9333333333333333,19638005.6895
1.9666666666666666,20071227.0429
2.0,20522158.7032
2.033333333333333,20932220.4245
2.066666666666667,21315035.5198
2.1,21646082.0257
2.1333333333333333,21895388.6536
2.1666666666666665,21629734.050100002
2.2,20810972.9388
2.2333333333333334,19435018.3258
2.2666666666666666,18238891.4444
2.3,17198070.3312
2.3333333333333335,16328902.961800002
2.3666666666666667,15808492.4052
2.4,15594606.3911
2.433333333333333,15526489.826100001
2.466666666666667,15970609.8299
2.5,16898357.4452
2.533333333333333,17832916.717
2.566666666666667,18687098.4421
2.6,19443192.3136
2.6333333333333333,20259228.7623
2.6666666666666665,20985351.345200002
2.7,21458080.3063
2.7333333333333334,22072491.7226
2.7666666666666666,22542496.0211
2.8,23182791.732100002
2.8333333333333335,23974306.2174
2.8666666666666667,24594166.9589
2.9,24839386.5929
2.933333333333333,24662283.523900002
2.966666666666667,23820362.780500002
3.0,22458031.4805
3.033333333333333,21050743.2476
3.066666666666667,19778325.8134
3.1,18790635.6209
3.1333333333333333,18233442.119200002
3.1666666666666665,18083585.676200002
3.2,18215731.8123
3.2333333333333334,18621706.5397
3.2666666666666666,19105334.1512
3.3,19721107.8988
3.3333333333333335,20369577.5976
3.3666666666666667,21001699.320800003
3.4,21748256.8732
3.433333333333333,22562930.9906
3.466666666666667,23218212.3459
3.5,23741347.5651
3.533333333333333,24021987.8129
3.566666666666667,24195003.888
3.6,24177293.581100002
3.6333333333333333,23776768.1789
3.6666666666666665,22718236.7588
3.7,20795987.2945
3.7333333333333334,19016782.6167
3.7666666666666666,17368361.7437
3.8,15988320.1368
3.8333333333333335,14963846.999200001
3.8666666666666667,14297666.9935
3.9,13739111.160500001
3.933333333333333,13357658.3965
3.966666666666667,13019800.234100001
4.0,12601564.525
4.033333333333333,12190140.4724
4.066666666666666,11984428.4461
4.1,12025298.3851
4.133333333333334,12316837.283300001
4.166666666666667,12681942.071700001
4.2,13171019.0084
4.233333333333333,13807227.7255
4.266666666666667,14463871.4121
4.3,14947499.0236
4.333333333333333,15051036.2024
4.366666666666666,14834425.525700001
4.4,13916214.229500001
4.433333333333334,12634260.476200001
4.466666666666667,11656106.6028
4.5,10875490.767900001
4.533333333333333,10537632.6055
4.566666666666666,10356442.5426
4.6,10081251.620000001
4.633333333333334,10085338.6139
4.666666666666667,10026758.368
4.7,10101686.5895
4.733333333333333,10306036.284500001
4.766666666666667,10874128.4366
4.8,11626135.3142
4.833333333333333,12607013.850200001
4.866666666666666,13702328.215400001
4.9,14886194.1151
4.933333333333334,16048262.714000002
4.966666666666667,17067286.5264
5.0,18068600.0319
5.033333333333333,18789273.2896
5.066666666666666,19039942.248800002
5.1,18764751.3262
5.133333333333334,17845177.6987
5.166666666666667,16545513.638500001
5.2,15334401.1128
5.233333333333333,14078331.6542
5.266666666666667,13334498.7644
5.3,13131511.400700001
5.333333333333333,12978930.2951
5.366666666666666,13082467.4739
5.4,13353571.4026
5.433333333333334,13636936.313000001
5.466666666666667,13868532.634000001
5.5,14139636.5627
5.533333333333333,14304478.65
5.566666666666666,14470683.0686
5.6,14891643.4403
5.633333333333334,15463822.5863
5.666666666666667,16120466.2729
5.7,16763486.6465
5.733333333333333,17443289.9652
5.766666666666667,17944627.8836
5.8,17906482.6072
5.833333333333333,18241616.107
5.866666666666666,18628518.196200002
5.9,19360090.1043
5.933333333333334,20312359.683000002
5.966666666666667,21157005.089
6.0,21357267.7901
6.033333333333333,21137932.4508
6.066666666666666,20909060.792400002
6.1,20781001.650200002
6.133333333333334,20745581.0364
6.166666666666667,21136570.1195
6.2,22260493.442
6.233333333333333,23335372.837700002
6.266666666666667,24351671.9875
6.3,25403391.7511
6.333333333333333,26712592.130400002
6.366666666666666,28434578.893600002
6.4,29047627.978600003
6.433333333333334,29153889.82
6.466666666666667,29362326.5089
6.5,29502646.6328
6.533333333333333,29130730.187900003
6.566666666666666,28480898.1578
6.6,27987734.2272
6.633333333333334,27859675.085
6.666666666666667,28393708.954600003
6.7,29734242.9538
6.733333333333333,31629245.7921
6.766666666666667,33212274.762700003
6.8,34900203.2434
6.833333333333333,36173983.0089
6.866666666666666,37137151.238
6.9,37962724.0058
6.933333333333334,39079835.6718
6.966666666666667,40196947.3378
7.0,41601510.9081
7.033333333333333,42902537.299600005
7.066666666666666,44169505.4086
7.1,44639509.707100004
7.133333333333334,43290801.7201
7.166666666666667,41357653.6054
7.2,40882199.9817
7.233333333333333,40094772.4903
7.266666666666667,40292310.5288
7.3,38547164.1335
7.333333333333333,34965595.1458
7.366666666666666,30245117.1913
7.4,28854176.934
7.433333333333334,25297129.909700003
7.466666666666667,23666419.3436
7.5,19027681.267100003
7.533333333333333,16514180.0186
7.566666666666666,10043106.343600001
7.6,9533594.4374
7.633333333333334,7539141.4142
7.666666666666667,7261225.829
7.7,-3328175.3659
7.733333333333333,-4232763.3491
7.766666666666667,-11526685.1293
7.8,-13188729.3153
7.833333333333333,-22489365.1004
7.866666666666666,-24486542.7862
7.9,-29454965.0373
7.933333333333334,-32144207.023500003
7.966666666666667,-36934163.8743
8.0,-39194271.501
8.033333333333333,-40992548.817
8.066666666666666,-41706410.4182
8.1,-41969340.3591
8.133333333333333,-42074239.8692
8.166666666666666,-42123283.796000004
8.2,-42136907.109000005
8.233333333333333,-42180501.7106
8.266666666666667,-42338532.1414
8.3,-42420272.0194
8.333333333333334,-42507461.2226
8.366666666666667,-42495200.2409
8.4,-42542881.8364
8.433333333333334,-42797637.7895
8.466666666666667,-43027871.7792
8.5,-44177679.396400005
8.533333333333333,-44063243.567200005
8.566666666666666,-44187215.715500005
8.6,-44300289.2134
8.633333333333333,-42805811.7773
8.666666666666666,-42382126.743
8.7,-36720277.8602
8.733333333333333,-36759785.4679
8.766666666666667,-30821383.3312
8.8,-30239667.866100002
8.833333333333334,-25178607.086600002
8.866666666666667,-23513838.238
8.9,-15542837.8017
8.933333333333334,-13706415.2093
8.966666666666667,-10435457.758000001
9.0,-9322433.085900001
9.033333333333333,-8629006.4542
9.066666666666666,-8047290.9891
9.1,-7710795.158000001
9.133333333333333,-6898845.7032
9.166666666666666,-9702523.5186
9.2,-12210575.4419
9.233333333333333,-17951439.5401
9.266666666666667,-19346466.791300002
9.3,-24494716.774
9.333333333333334,-25967396.9093
9.366666666666667,-31484838.6743
9.4,-32702762.8565
9.433333333333334,-37806055.9063
9.466666666666667,-39168387.206300005
9.5,-40330455.8052
9.533333333333333,-40793648.4472
9.566666666666666,-41412146.8574
9.6,-41963891.0339
9.633333333333333,-42516997.5417
9.666666666666666,-42533345.5173
9.7,-42221371.6496
9.733333333333333,-41891687.475
9.766666666666667,-41823570.910000004
9.8,-42000673.979
9.833333333333334,-42360329.442200005
9.866666666666667,-42849406.3789
9.9,-43492426.752500005
9.933333333333334,-44139534.120000005
9.966666666666667,-44639509.707100004
