Time (s),PPGG
0.0,-5098895.949
0.03333333333333333,-4888592.779
0.06666666666666667,-4691672.538
0.1,-4441220.581
0.13333333333333333,-4033997.17
0.16666666666666666,-3527357.715
0.2,-2928949.604
0.23333333333333334,-2106855.394
0.26666666666666666,-1686249.054
0.3,-1189168.834
0.3333333333333333,-592672.57
0.36666666666666664,380457.553
0.4,955923.5
0.43333333333333335,969306.429
0.4666666666666667,598408.111
0.5,-162506.995
0.5333333333333333,-986513.052
0.5666666666666667,-1994056.421
0.6,-2670850.259
0.6333333333333333,-3127781.692
0.6666666666666666,-3305583.463
0.7,-3416470.589
0.7333333333333333,-3494856.316
0.7666666666666667,-3359115.179
0.8,-3058955.2
0.8333333333333334,-2634525.166
0.8666666666666667,-2271274.236
0.9,-1594480.398
0.9333333333333333,-879449.62
0.9666666666666667,-70738.33899999999
1.0,676793.838
1.0333333333333334,1412854.933
1.0666666666666667,2125973.864
1.1,2976745.779
1.1333333333333333,3796928.142
1.1666666666666667,3968994.372
1.2,3758691.202
1.2333333333333334,2684233.188
1.2666666666666666,1561978.999
1.3,367074.624
1.3333333333333333,-737972.942
1.3666666666666667,-1194904.375
1.4,-1365058.758
1.4333333333333333,-1365058.758
1.4666666666666666,-1296232.266
1.5,-1064898.779
1.5333333333333334,-825917.904
1.5666666666666667,-579289.641
1.6,-198832.088
1.6333333333333333,290600.744
1.6666666666666667,783857.27
1.7,1298144.113
1.7333333333333334,1982585.339
1.7666666666666666,2525549.887
1.8,3141164.621
1.8333333333333333,3659275.158
1.8666666666666667,4259595.116
1.9,4662994.833
1.9333333333333333,4515782.614
1.9666666666666666,3882961.2569999998
2.0,2710999.046
2.033333333333333,1705367.524
2.066666666666667,820182.363
2.1,374722.012
2.1333333333333333,183537.312
2.1666666666666665,260011.192
2.2,479873.597
2.2333333333333334,785769.117
2.2666666666666666,988424.899
2.3,1261819.02
2.3333333333333335,1699631.983
2.3666666666666667,2242596.531
2.4,2852475.724
2.433333333333333,3519710.327
2.466666666666667,4131501.367
2.5,4722262.09
2.533333333333333,5347436.059
2.566666666666667,5943932.323
2.6,6377921.592
2.6333333333333333,6618814.314
2.6666666666666665,6769850.227
2.7,6641756.478
2.7333333333333334,5638036.803
2.7666666666666666,4012966.853
2.8,650027.98
2.8333333333333335,-3947964.055
2.8666666666666667,-8477129.598
2.9,-12706135.162
2.933333333333333,-16755427.108
2.966666666666667,-21399303.471
3.0,-26178920.971
3.033333333333333,-30193799.671
3.066666666666667,-34078672.775
3.1,-36747611.187
3.1333333333333333,-39003590.647
3.1666666666666665,-41081768.336
3.2,-41341779.528
3.2333333333333334,-41986071.967
3.2666666666666666,-42808166.177
3.3,-43224948.823
3.3333333333333335,-43649378.857
3.3666666666666667,-43175240.801
3.4,-43049058.899
3.433333333333333,-42704926.439
3.466666666666667,-42616981.477
3.5,-43790855.535
3.533333333333333,-45786823.803
3.566666666666667,-46585975.849
3.6,-47398510.824
3.6333333333333333,-48585767.811
3.6666666666666665,-49325652.6
3.7,-49474776.666
3.7333333333333334,-49723316.776
3.7666666666666666,-49874352.689
3.8,-49797878.809
3.8333333333333335,-49683167.989
3.8666666666666667,-49589487.486
3.9,-49254914.261
3.933333333333333,-49025492.621
3.966666666666667,-48759745.888
4.0,-48331492.16
4.033333333333333,-48090599.438
4.066666666666666,-47945299.066
4.1,-47633668.005
4.133333333333334,-47411893.753
4.166666666666667,-47245563.064
4.2,-47094527.151
4.233333333333333,-47322036.944
4.266666666666667,-48052362.497999996
4.3,-48939459.506
4.333333333333333,-50260545.783
4.366666666666666,-51424860.606
4.4,-52331076.084
4.433333333333334,-52933307.889
4.466666666666667,-53367297.158
4.5,-53445682.885
4.533333333333333,-53529804.153
4.566666666666666,-53562305.552
4.6,-53007869.922
4.633333333333334,-52736387.648
4.666666666666667,-52407549.964
4.7,-51791935.23
4.733333333333333,-50864689.435
4.766666666666667,-49543603.158
4.8,-47650874.628
4.833333333333333,-46037275.76
4.866666666666666,-44536475.865
4.9,-42213581.76
4.933333333333334,-39909806.125
4.966666666666667,-38403270.689
5.0,-37692063.605
5.033333333333333,-37265721.724
5.066666666666666,-36804966.597
5.1,-36118613.524
5.133333333333334,-35063273.98
5.166666666666667,-34202942.83
5.2,-33103630.805
5.233333333333333,-32407718.497
5.266666666666667,-31673569.248999998
5.3,-30247331.387
5.333333333333333,-28216949.873
5.366666666666666,-26303191.026
5.4,-24586352.419999998
5.433333333333334,-23156290.864
5.466666666666667,-21925061.396
5.5,-20015126.243
5.533333333333333,-18510502.654
5.566666666666666,-16495415.916
5.6,-13432637.022
5.633333333333334,-10790464.468
5.666666666666667,-7062362.818
5.7,-2735853.057
5.733333333333333,2907919.287
5.766666666666667,11350635.639
5.8,20007478.855
5.833333333333333,24182952.703
5.866666666666666,26433196.622
5.9,27933996.517
5.933333333333334,31805486.691999998
5.966666666666667,35250634.986
6.0,35506822.484
6.033333333333333,36359506.246
6.066666666666666,36839379.843
6.1,39366841.577
6.133333333333334,47559105.972
6.166666666666667,48316197.383999996
6.2,50704094.287
6.233333333333333,51621780.847
6.266666666666667,49555074.24
6.3,49023580.774
6.333333333333333,49545515.005
6.366666666666666,52837715.539
6.4,53566129.246
6.433333333333334,54017325.138
6.466666666666667,54478080.265
6.5,55030604.048
6.533333333333333,55347970.65
6.566666666666666,54675000.506
6.6,52313869.461
6.633333333333334,49621988.885
6.666666666666667,47822940.858
6.7,46471265.029
6.733333333333333,46058306.077
6.766666666666667,46115661.486999996
6.8,46383320.067
6.833333333333333,46582152.155
6.866666666666666,47021876.964999996
6.9,47436747.764
6.933333333333334,47983536.006
6.966666666666667,48448114.827
7.0,49115349.43
7.033333333333333,49570369.016
7.066666666666666,50170688.974
7.1,51289119.469
7.133333333333334,52789919.364
7.166666666666667,53449506.578999996
7.2,54219980.92
7.233333333333333,55110901.622
7.266666666666667,55405326.06
7.3,55489447.328
7.333333333333333,55022956.66
7.366666666666666,53434211.803
7.4,52373136.718
7.433333333333334,51373240.736999996
7.466666666666667,50704094.287
7.5,50480408.188
7.533333333333333,50600854.549
7.566666666666666,50706006.133999996
7.6,51101758.463
7.633333333333334,51558689.896
7.666666666666667,52032827.952
7.7,53158905.835
7.733333333333333,54248658.625
7.766666666666667,54935011.698
7.8,55866081.187
7.833333333333333,57043778.939
7.866666666666666,58085735.554
7.9,58969008.868
7.933333333333334,60083615.669
7.966666666666667,60804381.988
8.0,61955313.882
8.033333333333333,62584311.545
8.066666666666666,62536515.37
8.1,61821484.592
8.133333333333333,60901886.185
8.166666666666666,59590359.143
8.2,58183239.751
8.233333333333333,57212021.475
8.266666666666667,56827740.228
8.3,56781855.9
8.333333333333334,56843035.004
8.366666666666667,56994070.916999996
8.4,57204374.087
8.433333333333334,57535123.618
8.466666666666667,57927052.253
8.5,58301774.265
8.533333333333333,58443250.942999996
8.566666666666666,58617229.019999996
8.6,58913565.305
8.633333333333333,59311229.481
8.666666666666666,59898166.51
8.7,60483191.692
8.733333333333333,61339699.148
8.766666666666667,62439011.173
8.8,62645490.649
8.833333333333334,61639859.127
8.866666666666667,58957537.786
8.9,54879568.135
8.933333333333334,51746050.902
8.966666666666667,49228148.403
9.0,45337539.758
9.033333333333333,43270833.151
9.066666666666666,35682712.408
9.1,11270338.065
9.133333333333333,-11564762.503
9.166666666666666,-33692479.681
9.2,-46530532.286
9.233333333333333,-52755506.118
9.266666666666667,-59487119.405
9.3,-59963169.308
9.333333333333334,-60982183.758999996
9.366666666666667,-61746922.559
9.4,-62645490.649
9.433333333333334,-62001198.21
9.466666666666667,-61875016.308
9.5,-57632627.815
9.533333333333333,-56690087.244
9.566666666666666,-54252482.319
9.6,-54057473.925
9.633333333333333,-53954234.187
9.666666666666666,-52661825.615
9.7,-52388431.494
9.733333333333333,-52334899.778
9.766666666666667,-50038771.530999996
9.8,-49107702.042
9.833333333333334,-45934036.022
9.866666666666667,-44027924.563
9.9,-42800518.789
9.933333333333334,-42219317.301
9.966666666666667,-41938275.792
