Time (s),PPGG
0.0,75744265.3183
0.03333333333333333,74031944.1979
0.06666666666666667,67714517.034
0.1,66144889.340299994
0.13333333333333333,69374949.6356
0.16666666666666666,72202873.9102
0.2,72916341.0437
0.23333333333333334,83345933.32249999
0.26666666666666666,94981933.6634
0.3,106436324.1885
0.3333333333333333,115880034.6101
0.36666666666666664,126439348.18589999
0.4,141590795.6755
0.43333333333333335,154342399.1706
0.4666666666666667,159946359.201
0.5,149659460.3489
0.5333333333333333,119667896.4825
0.5666666666666667,77080394.6774
0.6,31016362.1127
0.6333333333333333,-4942381.4157
0.6666666666666666,-24647046.43
0.7,-34246422.408
0.7333333333333333,-44831680.2432
0.7666666666666667,-56324987.1574
0.8,-70931605.1996
0.8333333333333334,-100443200.26709999
0.8666666666666667,-127503062.8213
0.9,-157118434.9264
0.9333333333333333,-209850142.1569
0.9666666666666667,-263827173.83859998
1.0,-293377685.2952
1.0333333333333334,-306025511.7527
1.0666666666666667,-327221971.6825
1.1,-347237967.8096
1.1333333333333333,-342853387.971
1.1666666666666667,-313821761.70239997
1.2,-293844681.9644
1.2333333333333334,-282494068.4769
1.2666666666666666,-274386487.4144
1.3,-275528034.828
1.3333333333333333,-291872918.25
1.3666666666666667,-302094956.4536
1.4,-297139602.90819997
1.4333333333333333,-297723348.7447
1.4666666666666666,-300330746.8144
1.5,-293260936.1279
1.5333333333333334,-279419673.738
1.5666666666666667,-268120948.76929998
1.6,-260726834.8403
1.6333333333333333,-240866504.2696
1.6666666666666667,-228854312.1674
1.7,-217905834.7006
1.7333333333333334,-200017267.8443
1.7666666666666666,-185501454.70999998
1.8,-175331305.02519998
1.8333333333333333,-161827318.0075
1.8666666666666667,-153460294.35099998
1.9,-151073422.4862
1.9333333333333333,-156949797.2403
1.9666666666666666,-207554075.2
2.0,-261115998.7313
2.033333333333333,-301264740.15279996
2.066666666666667,-346900692.4374
2.1,-382677826.15
2.1333333333333333,-394508408.4364
2.1666666666666665,-404445059.7866
2.2,-420024587.5563
2.2333333333333334,-425057773.8799
2.2666666666666666,-402628961.6286
2.3,-358458860.00009996
2.3333333333333335,-318102564.50339997
2.3666666666666667,-264099588.5623
2.4,-209759337.24899998
2.433333333333333,-158662118.36069998
2.466666666666667,-112234866.1644
2.5,-67247520.36479999
2.533333333333333,-26566921.6256
2.566666666666667,15605472.029099999
2.6,53056010.473
2.6333333333333333,57544367.349199995
2.6666666666666665,58089196.7966
2.7,45155983.4857
2.7333333333333334,15618444.1588
2.7666666666666666,4202970.022799999
2.8,2010680.1035
2.8333333333333335,-765355.6523
2.8666666666666667,5941235.4026
2.9,20638658.3527
2.933333333333333,27046890.4245
2.966666666666667,46531029.233899996
3.0,75822098.0965
3.033333333333333,93905246.89829999
3.066666666666667,120692694.7288
3.1,151773917.48999998
3.1333333333333333,185877646.4713
3.1666666666666665,183607523.7738
3.2,181233624.03869998
3.2333333333333334,189496870.6576
3.2666666666666666,193842534.10709998
3.3,198629249.9664
3.3333333333333335,189081762.5072
3.3666666666666667,170362979.35009998
3.4,132951357.29529999
3.433333333333333,80440176.26969999
3.466666666666667,34181561.7595
3.5,10079344.776899999
3.533333333333333,129721.29699999999
3.566666666666667,-8522689.2129
3.6,-15359001.5648
3.6333333333333333,51434494.2605
3.6666666666666665,107435178.17539999
3.7,138075348.5268
3.7333333333333334,160076080.498
3.7666666666666666,183101610.7155
3.8,211484630.4991
3.8333333333333335,234756631.18089998
3.8666666666666667,251503650.62359998
3.9,272674166.29399997
3.933333333333333,297995763.4684
3.966666666666667,323485998.3289
4.0,340842707.8675
4.033333333333333,345940754.83959997
4.066666666666666,334084228.2938
4.1,296335330.8668
4.133333333333334,241489166.49519998
4.166666666666667,193699840.68039998
4.2,164603353.7633
4.233333333333333,143731197.076
4.266666666666667,139567143.4423
4.3,132134113.1242
4.333333333333333,130499624.78199999
4.366666666666666,136129529.0718
4.4,139255812.3295
4.433333333333334,143173395.4989
4.466666666666667,146701814.7773
4.5,156379023.5335
4.533333333333333,167664776.3725
4.566666666666666,180649878.2022
4.6,193492286.6052
4.633333333333334,217789085.53329998
4.666666666666667,236494896.5607
4.7,257834049.9172
4.733333333333333,264060672.17319998
4.766666666666667,249752413.11409998
4.8,219112242.7627
4.833333333333333,174021119.9255
4.866666666666666,135934947.1263
4.9,97757969.4192
4.933333333333334,81983859.704
4.966666666666667,78805687.9275
5.0,73500086.8802
5.033333333333333,69154423.4307
5.066666666666666,73551975.399
5.1,79402405.8937
5.133333333333334,81452002.3863
5.166666666666667,87017046.02759999
5.2,98795739.79519999
5.233333333333333,122392043.71949999
5.266666666666667,130499624.78199999
5.3,143977667.54029998
5.333333333333333,166717810.9044
5.366666666666666,190742195.1088
5.4,211251132.1645
5.433333333333334,209979863.45389998
5.466666666666667,196359127.2689
5.5,165018461.91369998
5.533333333333333,122236378.16309999
5.566666666666666,83670236.565
5.6,59347493.3775
5.633333333333334,48801151.9314
5.666666666666667,37865646.5943
5.7,36270074.6412
5.733333333333333,37735925.297299996
5.766666666666667,43197191.901
5.8,43832826.256299995
5.833333333333333,49644340.3619
5.866666666666666,62084612.7442
5.9,76769063.56459999
5.933333333333334,93580943.6558
5.966666666666667,109835022.1699
6.0,135000953.7879
6.033333333333333,158921560.9547
6.066666666666666,182427059.9711
6.1,198797887.6525
6.133333333333334,194361419.2951
6.166666666666667,172049356.21109998
6.2,137725101.0249
6.233333333333333,101091806.75209999
6.266666666666667,66988077.770799994
6.3,48061740.538499996
6.333333333333333,41082734.759899996
6.366666666666666,40719515.128299996
6.4,36763015.5698
6.433333333333334,38384531.782299995
6.466666666666667,45597035.8955
6.5,52096072.875199996
6.533333333333333,59217772.0805
6.566666666666666,72034236.2241
6.6,94476020.60509999
6.633333333333334,113622884.0423
6.666666666666667,133794545.7258
6.7,159492334.6615
6.733333333333333,185825757.9525
6.766666666666667,210848996.1438
6.8,232901616.6338
6.833333333333333,240788671.4914
6.866666666666666,225974499.37399998
6.9,196008879.767
6.933333333333334,151293948.6911
6.966666666666667,112157033.3862
7.0,82126553.13069999
7.033333333333333,69958695.4721
7.066666666666666,64095292.8477
7.1,61150619.4058
7.133333333333334,58880496.708299994
7.166666666666667,57751921.424399994
7.2,62551609.413399994
7.233333333333333,72021264.0944
7.266666666666667,78909464.96509999
7.3,96733171.17289999
7.333333333333333,112157033.3862
7.366666666666666,133262688.4081
7.4,154575897.5052
7.433333333333334,182310310.8038
7.466666666666667,205841754.0796
7.5,230294218.5641
7.533333333333333,253592163.5053
7.566666666666666,262685626.42499998
7.6,254240769.9903
7.633333333333334,222199609.6313
7.666666666666667,182089784.5989
7.7,141357297.3409
7.733333333333333,113882326.6363
7.766666666666667,99171931.5565
7.8,95591623.7593
7.833333333333333,91401625.8662
7.866666666666666,87354321.3998
7.9,95656484.40779999
7.933333333333334,104711030.9384
7.966666666666667,109277220.59279999
8.0,115944895.2586
8.033333333333333,139411477.8859
8.066666666666666,157974595.48659998
8.1,173787621.5909
8.133333333333333,194594917.6297
8.166666666666666,221343449.0711
8.2,247910370.69669998
8.233333333333333,277888962.4334
8.266666666666667,303664584.1473
8.3,320139188.8663
8.333333333333334,313121266.6986
8.366666666666667,285594407.4752
8.4,249765385.24379998
8.433333333333334,206477388.4349
8.466666666666667,170907808.79749998
8.5,152539273.14229998
8.533333333333333,148193609.6928
8.566666666666666,145715932.9201
8.6,139255812.3295
8.633333333333333,140462220.39159998
8.666666666666666,146844508.204
8.7,152305774.8077
8.733333333333333,155704472.7891
8.766666666666667,169818149.9027
8.8,192195073.6352
8.833333333333334,210550637.1607
8.866666666666667,232720006.818
8.9,254941264.9941
8.933333333333334,285127410.806
8.966666666666667,312057552.0632
9.0,337573731.1831
9.033333333333333,352050627.92829996
9.066666666666666,350039947.8248
9.1,329232651.786
9.133333333333333,286671094.2403
9.166666666666666,247884426.4373
9.2,210459832.2528
9.233333333333333,188277490.4658
9.266666666666667,181298484.68719998
9.3,178911612.8224
9.333333333333334,176784183.55159998
9.366666666666667,179962355.3281
9.4,184256130.2588
9.433333333333334,185397677.6724
9.466666666666667,196618569.8629
9.5,212600233.6533
9.533333333333333,233498334.6
9.566666666666666,249596747.55769998
9.6,273180079.3523
9.633333333333333,306233065.8279
9.666666666666666,331606551.5211
9.7,352764095.0618
9.733333333333333,381899498.368
9.766666666666667,417676632.08059996
9.8,425057773.8799
9.833333333333334,409932270.6497
9.866666666666667,379201295.3904
9.9,340790819.3487
9.933333333333334,291042701.9492
9.966666666666667,253527302.8568
