Time (s),PPGG
0.0,-12556717.524
0.03333333333333333,-95959615.8645
0.06666666666666667,-128263649.8365
0.1,-140176433.1285
0.13333333333333333,-148614654.627
0.16666666666666666,-151807495.194
0.2,-151337959.8165
0.23333333333333334,-138901979.961
0.26666666666666666,-116833817.2185
0.3,-81444265.05150001
0.3333333333333333,-27702587.2725
0.36666666666666664,19707070.5585
0.4,67317957.837
0.43333333333333335,106839421.326
0.4666666666666667,133616353.14
0.5,144120530.29950002
0.5333333333333333,165705742.368
0.5666666666666667,169569347.76
0.6,155671100.586
0.6333333333333333,126868459.00050001
0.6666666666666666,39226326.966
0.7,-56397906.486
0.7333333333333333,-129940561.899
0.7666666666666667,-183078551.3355
0.8,-220010862.6
0.8333333333333334,-234016432.146
0.8666666666666667,-248545198.25550002
0.9,-256970004.4575
0.9333333333333333,-259478664.903
0.9666666666666667,-266092406.07750002
1.0,-270345055.068
1.0333333333333334,-260256752.1
1.0666666666666667,-258338364.7005
1.1,-256084594.8885
1.1333333333333333,-243420554.9925
1.1666666666666667,-234915257.0115
1.2,-221526791.1045
1.2333333333333334,-200612343.861
1.2666666666666666,-192764395.40850002
1.3,-186043331.86200002
1.3333333333333333,-185922594.1935
1.3666666666666667,-220279168.53
1.4,-311328785.8755
1.4333333333333333,-393765782.86800003
1.4666666666666666,-428135772.501
1.5,-439579020.4155
1.5333333333333334,-423816047.028
1.5666666666666667,-380229748.6995
1.6,-322262252.523
1.6333333333333333,-256634622.04500002
1.6666666666666667,-196869476.13750002
1.7,-140243509.611
1.7333333333333334,-88487295.714
1.7666666666666666,-46068128.181
1.8,-10235871.2295
1.8333333333333333,29044116.9225
1.8666666666666667,60650555.476500005
1.9,97099916.067
1.9333333333333333,130410097.2765
1.9666666666666666,163545879.6315
2.0,194816935.773
2.033333333333333,235747005.39450002
2.066666666666667,251939268.27
2.1,249229378.377
2.1333333333333333,227214876.82050002
2.1666666666666665,172547543.583
2.2,103297783.05
2.2333333333333334,39065343.408
2.2666666666666666,1381775.5395
2.3,-14381197.848000001
2.3333333333333335,-21222999.063
2.3666666666666667,-18620431.542
2.4,-14300706.069
2.433333333333333,-4172157.2115
2.466666666666667,6949123.587
2.5,21142507.284
2.533333333333333,33967530.738
2.566666666666667,48831679.26
2.6,60489571.9185
2.6333333333333333,75112245.10350001
2.6666666666666665,92538715.257
2.7,108382180.4235
2.7333333333333334,130986955.02600001
2.7666666666666666,161842136.976
2.8,208916412.39450002
2.8333333333333335,226423374.327
2.8666666666666667,223673238.5445
2.9,210660400.9395
2.933333333333333,177135574.986
2.966666666666667,135360341.685
3.0,98387784.531
3.033333333333333,75648856.96350001
3.066666666666667,70282738.3635
3.1,68726563.9695
3.1333333333333333,69477820.5735
3.1666666666666665,72295032.83850001
3.2,78023364.444
3.2333333333333334,87910437.9645
3.2666666666666666,102962400.6375
3.3,120080318.97150001
3.3333333333333335,140833782.657
3.3666666666666667,161828721.6795
3.4,186982402.617
3.433333333333333,212028761.1825
3.466666666666667,239087414.22300002
3.5,270506038.626
3.533333333333333,298812314.241
3.566666666666667,314186244.03000003
3.6,306740754.4725
3.6333333333333333,272303688.357
3.6666666666666665,201631906.395
3.7,130825971.46800001
3.7333333333333334,72254786.949
3.7666666666666666,41761818.0045
3.8,34799279.121
3.8333333333333335,32344279.861500002
3.8666666666666667,32371110.4545
3.9,35295645.0915
3.933333333333333,40836162.546000004
3.966666666666667,49073154.597
4.0,63481183.038
4.033333333333333,85831067.007
4.066666666666666,104867372.7405
4.1,133294386.024
4.133333333333334,163934923.23000002
4.166666666666667,200357453.2275
4.2,229039357.14450002
4.233333333333333,263020303.17900002
4.266666666666667,300059936.8155
4.3,325830721.392
4.333333333333333,324744082.3755
4.366666666666666,305224825.968
4.4,260618965.1055
4.433333333333334,187371446.2155
4.466666666666667,122910946.533
4.5,74347573.20300001
4.533333333333333,61106675.557500005
4.566666666666666,56934518.346
4.6,61200582.633
4.633333333333334,70899842.0025
4.666666666666667,90513005.48550001
4.7,116605757.178
4.733333333333333,145408398.7635
4.766666666666667,180006448.437
4.8,210392095.0095
4.833333333333333,245164543.5375
4.866666666666666,276395353.7895
4.9,305479716.60150003
4.933333333333334,339313094.37450004
4.966666666666667,372167155.503
5.0,397857448.30050004
5.033333333333333,430389542.313
5.066666666666666,439579020.4155
5.1,436238611.587
5.133333333333334,407918920.67550004
5.166666666666667,340627793.4315
5.2,252945415.5075
5.233333333333333,181468715.75550002
5.266666666666667,134327363.8545
5.3,115384965.1965
5.333333333333333,103767318.42750001
5.366666666666666,99756144.774
5.4,100091527.1865
5.433333333333334,101352565.0575
5.466666666666667,108905376.987
5.5,120107149.5645
5.533333333333333,136836024.3
5.566666666666666,153269762.51250002
5.6,176920930.242
5.633333333333334,199981824.9255
5.666666666666667,232889547.24
5.7,259693309.647
5.733333333333333,288147153.5235
5.766666666666667,317701051.713
5.8,343605989.25450003
5.833333333333333,356699318.63850003
5.866666666666666,346745168.6355
5.9,308283513.57
5.933333333333334,222143894.7435
5.966666666666667,145274245.7985
6.0,90231284.259
6.033333333333333,57833343.211500004
6.066666666666666,51273263.223000005
6.1,46631570.634
6.133333333333334,46618155.3375
6.166666666666667,48469466.2545
6.2,57685774.95
6.233333333333333,71610852.71700001
6.266666666666667,94309534.395
6.3,118255838.64750001
6.333333333333333,148936621.743
6.366666666666666,184473742.1715
6.4,220574305.053
6.433333333333334,261316560.5235
6.466666666666667,293191305.0075
6.5,330740719.911
6.533333333333333,361756885.419
6.566666666666666,392585236.776
6.6,400406354.6355
6.633333333333334,386199555.642
6.666666666666667,334537248.8205
6.7,249309870.15600002
6.733333333333333,166778966.088
6.766666666666667,96563304.207
6.8,63360445.369500004
6.833333333333333,49341460.527
6.866666666666666,45612008.1
6.9,46282772.925000004
6.933333333333334,50723236.0665
6.966666666666667,61173752.04
7.0,76078146.4515
7.033333333333333,104585651.514
7.066666666666666,125406191.682
7.1,158287083.4035
7.133333333333334,192227783.5485
7.166666666666667,228046625.2035
7.2,261745850.0115
7.233333333333333,293338873.269
7.266666666666667,331277331.771
7.3,363782595.1905
7.333333333333333,392799881.52000004
7.366666666666666,398273322.492
7.4,382470103.21500003
7.433333333333334,329358944.3715
7.466666666666667,238336157.61900002
7.5,154088095.599
7.533333333333333,96362074.7595
7.566666666666666,68914378.1205
7.6,57739436.136
7.633333333333334,55673480.475
7.666666666666667,57524791.392000005
7.7,63601920.7065
7.733333333333333,72938967.0705
7.766666666666667,89225137.0215
7.8,114284910.88350001
7.833333333333333,136970177.26500002
7.866666666666666,169140058.272
7.9,203496632.6085
7.933333333333334,240630173.32050002
7.966666666666667,275134315.9185
8.0,315889986.6855
8.033333333333333,357155438.7195
8.066666666666666,380202918.1065
8.1,407892090.08250004
8.133333333333333,411406897.7655
8.166666666666666,395160973.704
8.2,332913997.944
8.233333333333333,250772137.4745
8.266666666666667,172695111.8445
8.3,122293842.89400001
8.333333333333334,94054643.7615
8.366666666666667,84288307.9095
8.4,86273771.7915
8.433333333333334,89332459.3935
8.466666666666667,96898686.6195
8.5,106410131.838
8.533333333333333,126170863.58250001
8.566666666666666,147568261.5
8.6,172453636.5075
8.633333333333333,201833135.8425
8.666666666666666,236149464.2895
8.7,273202513.2225
8.733333333333333,308095699.419
8.766666666666667,334014052.257
8.8,343834049.295
8.833333333333334,355572433.7325
8.866666666666667,358832350.782
8.9,346597600.374
8.933333333333334,286523902.647
8.966666666666667,189169095.9465
9.0,96281582.9805
9.033333333333333,19385103.4425
9.066666666666666,-19049721.03
9.1,-36664005.3345
9.133333333333333,-43063101.765
9.166666666666666,-45585177.507
9.2,-42177692.196
9.233333333333333,-33082121.169
9.266666666666667,-22966987.608
9.3,-7619888.4120000005
9.333333333333334,11054204.316
9.366666666666667,36596928.852
9.4,63092139.439500004
9.433333333333334,95355927.522
9.466666666666667,124225645.59
9.5,160379869.6575
9.533333333333333,198828109.4265
9.566666666666666,228475914.6915
9.6,266535110.86200002
9.633333333333333,290870458.713
9.666666666666666,290199693.888
9.7,256205332.557
9.733333333333333,174023226.198
9.766666666666667,79485631.7625
9.8,2615982.8175
9.833333333333334,-47852362.6155
9.866666666666667,-75622026.3705
9.9,-87306749.62200001
9.933333333333334,-91841119.839
9.966666666666667,-92713114.11150001
