Time (s),PPGG
0.0,528220256.94000006
0.03333333333333333,438647220.5589
0.06666666666666667,300705780.258
0.1,188260461.5094
0.13333333333333333,107732765.47590001
0.16666666666666666,79992570.9366
0.2,65129902.9227
0.23333333333333334,65285261.8218
0.26666666666666666,73691904.4731
0.3,85930733.3022
0.3333333333333333,101414836.91250001
0.36666666666666664,117416803.5198
0.4,142567683.07410002
0.43333333333333335,176694854.5764
0.4666666666666667,217709603.9388
0.5,262055938.58190003
0.5333333333333333,306730253.12310004
0.5666666666666667,358568339.1228
0.6,420798209.2623
0.6333333333333333,482268547.0062
0.6666666666666666,523058889.06990004
0.7,562416476.8419
0.7333333333333333,565627227.4233
0.7666666666666667,531810773.7192
0.8,423491096.8467
0.8333333333333334,275951929.0014
0.8666666666666667,152458866.3168
0.9,61936414.4412
0.9333333333333333,23407407.4644
0.9666666666666667,8320332.1518
1.0,4936960.571400001
1.0333333333333334,10012017.942
1.0666666666666667,14828143.814100001
1.1,27809242.9389
1.1333333333333333,49490440.4133
1.1666666666666667,79405659.54
1.2,123544848.9843
1.2333333333333334,176159729.47950003
1.2666666666666666,230811537.76290002
1.3,288259806.23010004
1.3333333333333333,341651481.22080004
1.3666666666666667,395750902.30740005
1.4,445241342.7207
1.4333333333333333,503121163.6854
1.4666666666666666,544757348.6442001
1.5,546915111.1317
1.5333333333333334,510923632.8402
1.5666666666666667,405849230.7489
1.6,260433301.1913
1.6333333333333333,136577734.4088
1.6666666666666667,59761389.853800006
1.7,17918059.696200002
1.7333333333333334,1346443.7922
1.7666666666666666,759532.3956
1.8,4660766.973
1.8333333333333333,15898394.007900001
1.8666666666666667,30346771.6242
1.9,52614880.4952
1.9333333333333333,90695072.87460001
1.9666666666666666,133971157.32390001
2.0,189313449.6033
2.033333333333333,255151098.62190002
2.066666666666667,305711789.22900003
2.1,362020759.1028
2.1333333333333333,417363051.3822
2.1666666666666665,460000438.1352
2.2,507056922.46260005
2.2333333333333334,552646128.2985001
2.2666666666666666,560724791.0517
2.3,527322627.74520004
2.3333333333333335,432674533.99350005
2.3666666666666667,304503442.236
2.4,176470447.2777
2.433333333333333,94907025.2502
2.466666666666667,50940456.804900005
2.5,38908773.174600005
2.533333333333333,37907571.3804
2.566666666666667,40445100.0657
2.6,50595214.8069
2.6333333333333333,63317382.4332
2.6666666666666665,87415273.8936
2.7,115224516.83250001
2.7333333333333334,142774828.27290002
2.7666666666666666,172862668.3986
2.8,215189337.35340002
2.8333333333333335,261279144.0864
2.8666666666666667,304831422.1341
2.9,354511745.6463
2.933333333333333,391245494.2335
2.966666666666667,433451328.489
3.0,471376161.96930003
3.033333333333333,489018028.06710005
3.066666666666667,451800940.68270004
3.1,354287338.34760004
3.1333333333333333,201983830.92990002
3.1666666666666665,68720419.7019
3.2,-9977493.7422
3.2333333333333334,-50785097.9058
3.2666666666666666,-67097782.3113
3.3,-66459084.615
3.3333333333333335,-52632142.5951
3.3666666666666667,-38304599.678100005
3.4,-14776357.514400002
3.433333333333333,12532284.5274
3.466666666666667,38304599.678100005
3.5,76799082.4551
3.533333333333333,116536436.42490001
3.566666666666667,163851852.2508
3.6,207455916.59820002
3.6333333333333333,249161149.9566
3.6666666666666665,298668852.4698
3.7,351611712.8631
3.7333333333333334,408697477.2324
3.7666666666666666,463401071.8155
3.8,505347974.57250005
3.8333333333333335,500324703.5016
3.8666666666666667,460880805.23010004
3.9,341789578.02000004
3.933333333333333,180561564.95400003
3.966666666666667,48299355.52020001
4.0,-29241997.230600003
4.033333333333333,-71068065.28830001
4.066666666666666,-78853272.3432
4.1,-76143122.65890001
4.133333333333334,-69738883.596
4.166666666666667,-56550639.27240001
4.2,-37579591.482300006
4.233333333333333,-10978695.536400001
4.266666666666667,24667540.7571
4.3,56464328.7729
4.333333333333333,91955206.1673
4.366666666666666,124580574.9783
4.4,161383371.96510002
4.433333333333334,200844532.33650002
4.466666666666667,250697476.84770003
4.5,287224080.2361
4.533333333333333,324527478.12
4.566666666666666,368131542.4674
4.6,410475473.52210003
4.633333333333334,416827926.2853
4.666666666666667,361382061.40650004
4.7,217226265.1416
4.733333333333333,18228777.494400002
4.766666666666667,-131778870.6366
4.8,-235644925.73490003
4.833333333333333,-296217634.28400004
4.866666666666666,-318969081.9522
4.9,-326339998.6095
4.933333333333334,-325269748.4157
4.966666666666667,-322663171.3308
5.0,-311114826.49770004
5.033333333333333,-289865181.5208
5.066666666666666,-268339342.94550002
5.1,-233193707.5491
5.133333333333334,-184083033.3336
5.166666666666667,-130069922.74650002
5.2,-78352671.44610001
5.233333333333333,-16571615.904000001
5.266666666666667,41653447.0587
5.3,108682180.9704
5.333333333333333,163506610.25280002
5.366666666666666,222870971.80890003
5.4,259466623.59690002
5.433333333333334,253839179.0295
5.466666666666667,197512947.05580002
5.5,62385229.038600005
5.533333333333333,-80303288.73480001
5.566666666666666,-203416585.22160003
5.6,-282425216.4639
5.633333333333334,-325114389.5166
5.666666666666667,-344603300.30370003
5.7,-350696821.5684
5.733333333333333,-349212280.977
5.766666666666667,-339459194.5335
5.8,-320522670.9432
5.833333333333333,-301171856.95530003
5.866666666666666,-277988856.7896
5.9,-236956845.3273
5.933333333333334,-183737791.33560002
5.966666666666667,-127687752.96030001
6.0,-69704359.3962
6.033333333333333,-3987545.0769
6.066666666666666,51510106.101600006
6.1,109355402.8665
6.133333333333334,167028078.6324
6.166666666666667,207663061.79700002
6.2,210770239.779
6.233333333333333,154478532.0051
6.266666666666667,11341199.634300001
6.3,-141721840.17900002
6.333333333333333,-265646455.36110002
6.366666666666666,-343878292.1079
6.4,-385255545.56820005
6.433333333333334,-398927128.689
6.466666666666667,-405106960.45320004
6.5,-398927128.689
6.533333333333333,-386912707.15860003
6.566666666666666,-372792309.4404
6.6,-341996723.2188
6.633333333333334,-307748717.0172
6.666666666666667,-247970065.06350002
6.7,-198117120.5523
6.733333333333333,-139615863.9912
6.766666666666667,-87415273.8936
6.8,-30312247.4244
6.833333333333333,26290178.1477
6.866666666666666,83842019.2143
6.9,143430788.06910002
6.933333333333334,186189009.5214
6.966666666666667,204262428.11670002
7.0,177419862.77220002
7.033333333333333,74416912.6689
7.066666666666666,-93750464.55690001
7.1,-235662187.8348
7.133333333333334,-348176554.98300004
7.166666666666667,-409750465.3263
7.2,-434573364.9825
7.233333333333333,-443532394.8306
7.266666666666667,-440960341.9455
7.3,-433572163.1883
7.333333333333333,-421523217.4581
7.366666666666666,-402914673.7659
7.4,-365732110.5813
7.433333333333334,-318002404.3578
7.466666666666667,-275106086.1063
7.5,-218227466.93580002
7.533333333333333,-173415055.5954
7.566666666666666,-116657271.1242
7.6,-61176882.045600004
7.633333333333334,-1398230.0919
7.666666666666667,40807604.163600005
7.7,89245056.48300001
7.733333333333333,129672894.44880001
7.766666666666667,134161040.4228
7.8,107128591.97940001
7.833333333333333,-3262536.8811000003
7.866666666666666,-162522670.55850002
7.9,-306385011.1251
7.933333333333334,-406349831.646
7.966666666666667,-461415930.327
8.0,-482993555.202
8.033333333333333,-494006774.93820006
8.066666666666666,-490260899.25990003
8.1,-478850651.226
8.133333333333333,-469252923.68160003
8.166666666666666,-448003278.70470005
8.2,-411217743.81780005
8.233333333333333,-370168470.25560004
8.266666666666667,-321679231.6365
8.3,-276625150.89750004
8.333333333333334,-216035180.24850002
8.366666666666667,-164490549.9471
8.4,-101691030.5109
8.433333333333334,-55583961.678
8.466666666666667,-5938162.3656
8.5,46745766.5292
8.533333333333333,70222222.39320001
8.566666666666666,57431006.367300004
8.6,-30502130.523300003
8.633333333333333,-150732656.32680002
8.666666666666666,-287828253.73260003
8.7,-390520486.0377
8.733333333333333,-463660003.314
8.766666666666667,-488293019.87130004
8.8,-497735388.5166
8.833333333333334,-496837759.32180005
8.866666666666667,-490951383.2559
8.9,-480766744.31490004
8.933333333333334,-459965913.9354
8.966666666666667,-433537638.9885
9.0,-388034743.6521
9.033333333333333,-341737791.7203
9.066666666666666,-300153393.0612
9.1,-250904622.04650003
9.133333333333333,-202070141.42940003
9.166666666666666,-148902873.7374
9.2,-92697476.463
9.233333333333333,-34006336.803
9.266666666666667,15138861.612300001
9.3,54410138.8848
9.333333333333334,50474380.1076
9.366666666666667,-9787610.6433
9.4,-151319567.7234
9.433333333333334,-307835027.5167
9.466666666666667,-437628756.66480005
9.5,-521816017.87710005
9.533333333333333,-553630067.9928
9.566666666666666,-564194473.1316
9.6,-565627227.4233
9.633333333333333,-557876544.5682
9.666666666666666,-543514477.4514
9.7,-526752978.44850004
9.733333333333333,-500480062.40070003
9.766666666666667,-456081941.45790005
9.8,-414048728.20140004
9.833333333333334,-353424233.35260004
9.866666666666667,-295458101.8884
9.9,-238441385.9187
9.933333333333334,-186620562.0189
9.966666666666667,-129362176.6506
